# Frequency (GHz),Electric Dipole Moment * 377 (Vm),Magnetic Dipole Moment (Vm)
8.497500000000000000e-03,1.932397234619768082e-08,5.999254167492614295e-05
1.599499999999999814e-02,6.846580278033134814e-08,1.129244531373237029e-04
2.349250000000000000e-02,1.476926443984510516e-07,1.658552490045040991e-04
3.099000000000000000e-02,2.570029610731449273e-07,2.187844063861372232e-04
3.848750000000000000e-02,3.963946733723801700e-07,2.717114024676983296e-04
4.598500000000000000e-02,5.658651405210377294e-07,3.246357145302850218e-04
5.348250000000000000e-02,7.654111619486274014e-07,3.775568199679835146e-04
6.098000000000000000e-02,9.950289819244068589e-07,4.304741963059782804e-04
6.847750000000000000e-02,1.254714295517322943e-06,4.833873212179162510e-04
7.597500000000000000e-02,1.544462255552357571e-06,5.362956725419749113e-04
8.347250000000000000e-02,1.864267480503415895e-06,5.891987282951737133e-04
9.097000000000000000e-02,2.214124063258651090e-06,6.420959666857833665e-04
9.846750000000000000e-02,2.594025580754606514e-06,6.949868661235047073e-04
1.059650000000000000e-01,3.003961873741197483e-06,7.478709094428481578e-04
1.134625000000000000e-01,3.443926974137158335e-06,8.007475751535618035e-04
1.209600000000000000e-01,3.913913359124326425e-06,8.536163425023622674e-04
1.284575000000000000e-01,4.413912200510439414e-06,9.064766919945263773e-04
1.359550000000000000e-01,4.943914108094399430e-06,9.593281045987537723e-04
1.434525000000000000e-01,5.503909130206861351e-06,1.012170061775552075e-03
1.509500000000000000e-01,6.093886754200030457e-06,1.065002045505439700e-03
1.584475000000000000e-01,6.713835907065522141e-06,1.117823538317198320e-03
1.659450000000000000e-01,7.363744955992018758e-06,1.170634023315894612e-03
1.734425000000000000e-01,8.043601709008038879e-06,1.223432984210923906e-03
1.809400000000000000e-01,8.753393415639318717e-06,1.276219905343957449e-03
1.884375000000000000e-01,9.493106767572332845e-06,1.328994271716763247e-03
1.959350000000000000e-01,1.026272789941064718e-05,1.381755569018905698e-03
2.034325000000000000e-01,1.106224238941522410e-05,1.434503283655437413e-03
2.109300000000000000e-01,1.189163526024187979e-05,1.487236902774433187e-03
2.184275000000000000e-01,1.275089097981461590e-05,1.539955914294338559e-03
2.259250000000000000e-01,1.363999346211738527e-05,1.592659806931412056e-03
2.334225000000000000e-01,1.455892606808524685e-05,1.645348070226801624e-03
2.409200000000000000e-01,1.550767160652328965e-05,1.698020194573695652e-03
2.484175000000000000e-01,1.648621233498859235e-05,1.750675671244280793e-03
2.559150000000000000e-01,1.749452996081106391e-05,1.803313992416493133e-03
2.634125000000000000e-01,1.853260564206074174e-05,1.855934651200820103e-03
2.709100000000000000e-01,1.960041998857313687e-05,1.908537141666857145e-03
2.784075000000000000e-01,2.069795306300209256e-05,1.961120958869611106e-03
2.859050000000000000e-01,2.182518438191866382e-05,2.013685598875975154e-03
2.934025000000000000e-01,2.298209291693265684e-05,2.066230558790672651e-03
3.009000000000000000e-01,2.416865709582448519e-05,2.118755336782408329e-03
3.083975000000000000e-01,2.538485480372768886e-05,2.171259432109655819e-03
3.158950000000000000e-01,2.663066338436320348e-05,2.223742345146291662e-03
3.233925000000000000e-01,2.790605964126599965e-05,2.276203577407167299e-03
3.308900000000000000e-01,2.921101983902953350e-05,2.328642631573514532e-03
3.383875000000000000e-01,3.054551970466201589e-05,2.381059011518060851e-03
3.458850000000000000e-01,3.190953442889851727e-05,2.433452222330087945e-03
3.533825000000000000e-01,3.330303866754434156e-05,2.485821770340319349e-03
3.608800000000000000e-01,3.472600654293532795e-05,2.538167163145576503e-03
3.683775000000000000e-01,3.617841164525181921e-05,2.590487909633265671e-03
3.758750000000000000e-01,3.766022703416287457e-05,2.642783520005702238e-03
3.833725000000000000e-01,3.917142524008849119e-05,2.695053505804340891e-03
3.908700000000000000e-01,4.071197826592880492e-05,2.747297379933556945e-03
3.983675000000000000e-01,4.228185758848181341e-05,2.799514656684498354e-03
4.058650000000000000e-01,4.388103416008443808e-05,2.851704851758697038e-03
4.133625000000000000e-01,4.550947841023058064e-05,2.903867482291349299e-03
4.208600000000000000e-01,4.716716024718329111e-05,2.956002066874509945e-03
4.283575000000000000e-01,4.885404905970522897e-05,3.008108125580064365e-03
4.358550000000000000e-01,5.057011371870431945e-05,3.060185179982479430e-03
4.433525000000000000e-01,5.231532257902659028e-05,3.112232753181419943e-03
4.508500000000000000e-01,5.408964348120973311e-05,3.164250369823989103e-03
4.583475000000000000e-01,5.589304375327538461e-05,3.216237556126882655e-03
4.658450000000000000e-01,5.772549021259831814e-05,3.268193839898413805e-03
4.733425000000000000e-01,5.958694916770056790e-05,3.320118750559981294e-03
4.808400000000000000e-01,6.147738642022758393e-05,3.372011819167821094e-03
4.883375000000000000e-01,6.339676726683231799e-05,3.423872578434094139e-03
4.958350000000000000e-01,6.534505650114485976e-05,3.475700562747866505e-03
5.033324999999999404e-01,6.732221841574850373e-05,3.527495308196081786e-03
5.108300000000000000e-01,6.932821680421764269e-05,3.579256352584015647e-03
5.183275000000000596e-01,7.136301496317570543e-05,3.630983235455590742e-03
5.258250000000000000e-01,7.342657569431579789e-05,3.682675498113543305e-03
5.333225000000000596e-01,7.551886130661267888e-05,3.734332683639367701e-03
5.408200000000000000e-01,7.763983361838409946e-05,3.785954336912786093e-03
5.483175000000000000e-01,7.978945395954381570e-05,3.837540004631172143e-03
5.558150000000000000e-01,8.196768317368501868e-05,3.889089235328859785e-03
5.633125000000000000e-01,8.417448162045166086e-05,3.940601579395823159e-03
5.708100000000000000e-01,8.640980917774629822e-05,3.992076589096557777e-03
5.783075000000000000e-01,8.867362524396811400e-05,4.043513818588330248e-03
5.858050000000000000e-01,9.096588874046588539e-05,4.094912823939398511e-03
5.933025000000000000e-01,9.328655811377992396e-05,4.146273163146987038e-03
6.008000000000000000e-01,9.563559133813649953e-05,4.197594396154839640e-03
6.082975000000000000e-01,9.801294591775303023e-05,4.248876084870750573e-03
6.157950000000000000e-01,1.004185788893949293e-04,4.300117793183622084e-03
6.232925000000000000e-01,1.028524468247315359e-04,4.351319086980416119e-03
6.307900000000000000e-01,1.053145058330037673e-04,4.402479534162772982e-03
6.382875000000000000e-01,1.078047115634357233e-04,4.453598704663475592e-03
6.457850000000000000e-01,1.103230192078186113e-04,4.504676170462460112e-03
6.532825000000000000e-01,1.128693835032188662e-04,4.555711505602812704e-03
6.607800000000000000e-01,1.154437587344153015e-04,4.606704286206165198e-03
6.682775000000000000e-01,1.180460987367339999e-04,4.657654090488235615e-03
6.757750000000000000e-01,1.206763568986391497e-04,4.708560498773916789e-03
6.832725000000000000e-01,1.233344861644932204e-04,4.759423093511898351e-03
6.907700000000000000e-01,1.260204390372706665e-04,4.810241459289384125e-03
6.982675000000000000e-01,1.287341675813160973e-04,4.861015182846302983e-03
7.057650000000000000e-01,1.314756234252387440e-04,4.911743853089288112e-03
7.132625000000000000e-01,1.342447577645846388e-04,4.962427061105648476e-03
7.207600000000000000e-01,1.370415213648771245e-04,5.013064400176420014e-03
7.282575000000000000e-01,1.398658645643529740e-04,5.063655465790009233e-03
7.357550000000000000e-01,1.427177372769714036e-04,5.114199855654899193e-03
7.432525000000000000e-01,1.455970889953272162e-04,5.164697169712380645e-03
7.507500000000000000e-01,1.485038687935640251e-04,5.215147010148973514e-03
7.582475000000000000e-01,1.514380253305355436e-04,5.265548981408523128e-03
7.657450000000000000e-01,1.543995068526262998e-04,5.315902690204002412e-03
7.732425000000000000e-01,1.573882611969388656e-04,5.366207745529223000e-03
7.807400000000000000e-01,1.604042357943703887e-04,5.416463758670283547e-03
7.882375000000000000e-01,1.634473776725712450e-04,5.466670343216122052e-03
7.957350000000000000e-01,1.665176334593557487e-04,5.516827115069901713e-03
8.032325000000000000e-01,1.696149493855585914e-04,5.566933692459027222e-03
8.107300000000000000e-01,1.727392712884203991e-04,5.616989695945795967e-03
8.182275000000000000e-01,1.758905446147123212e-04,5.666994748436952022e-03
8.257250000000000000e-01,1.790687144240432269e-04,5.716948475193721520e-03
8.332225000000000000e-01,1.822737253920477202e-04,5.766850503841080416e-03
8.407200000000000000e-01,1.855055218136481790e-04,5.816700464377057810e-03
8.482175000000000000e-01,1.887640476064565210e-04,5.866497989181241289e-03
8.557150000000000000e-01,1.920492463141212978e-04,5.916242713023978778e-03
8.632125000000000000e-01,1.953610611095716015e-04,5.965934273074234226e-03
8.707100000000000000e-01,1.986994347984891943e-04,6.015572308907944643e-03
8.782075000000000000e-01,2.020643098226686956e-04,6.065156462515718799e-03
8.857050000000000000e-01,2.054556282635476355e-04,6.114686378310350313e-03
8.932025000000000000e-01,2.088733318454711501e-04,6.164161703134349822e-03
9.007000000000000000e-01,2.123173619393745016e-04,6.213582086266665298e-03
9.081975000000000000e-01,2.157876595661677947e-04,6.262947179429673855e-03
9.156950000000000000e-01,2.192841654003179364e-04,6.312256636795406800e-03
9.231925000000000000e-01,2.228068197732682102e-04,6.361510114992154595e-03
9.306900000000000000e-01,2.263555626771814836e-04,6.410707273109988481e-03
9.381875000000000000e-01,2.299303337683763159e-04,6.459847772706969055e-03
9.456850000000000000e-01,2.335310723710489161e-04,6.508931277814112779e-03
9.531825000000000000e-01,2.371577174808305998e-04,6.557957454940907538e-03
9.606800000000000000e-01,2.408102077684549133e-04,6.606925973080198487e-03
9.681775000000000000e-01,2.444884815833652078e-04,6.655836503712778129e-03
9.756750000000000000e-01,2.481924769575811216e-04,6.704688720811719654e-03
9.831725000000000000e-01,2.519221316091619549e-04,6.753482300846903701e-03
9.906700000000000000e-01,2.556773829461390988e-04,6.802216922788605763e-03
9.981675000000000000e-01,2.594581680701595777e-04,6.850892268111223246e-03
1.005665000000000000e+00,2.632644237802628131e-04,6.899508020796879353e-03
1.013162500000000000e+00,2.670960865766734888e-04,6.948063867338305326e-03
1.020659999999999881e+00,2.709530926645641654e-04,6.996559496742066168e-03
1.028157500000000000e+00,2.748353779578610471e-04,7.044994600531020480e-03
1.035655000000000000e+00,2.787428780832365560e-04,7.093368872746881777e-03
1.043152499999999881e+00,2.826755283837278573e-04,7.141682009952357406e-03
1.050650000000000119e+00,2.866332639227057977e-04,7.189933711233130464e-03
1.058147500000000000e+00,2.906160194877990669e-04,7.238123678199549424e-03
1.065645000000000000e+00,2.946237295946455914e-04,7.286251614988263972e-03
1.073142500000000119e+00,2.986563284909812236e-04,7.334317228263035129e-03
1.080640000000000000e+00,3.027137501604220348e-04,7.382320227216393645e-03
1.088137500000000000e+00,3.067959283264897960e-04,7.430260323569857703e-03
1.095635000000000000e+00,3.109027964564829044e-04,7.478137231575018862e-03
1.103132500000000000e+00,3.150342877654448885e-04,7.525950668013239343e-03
1.110630000000000000e+00,3.191903352202423100e-04,7.573700352196296483e-03
1.118127500000000000e+00,3.233708715434149817e-04,7.621386005966067009e-03
1.125625000000000000e+00,3.275758292172828716e-04,7.669007353694046528e-03
1.133122500000000000e+00,3.318051404878940083e-04,7.716564122281168239e-03
1.140620000000000000e+00,3.360587373690121765e-04,7.764056041156473277e-03
1.148117500000000000e+00,3.403365516462581353e-04,7.811482842276851364e-03
1.155615000000000000e+00,3.446385148809745285e-04,7.858844260125081443e-03
1.163112500000000000e+00,3.489645584145445868e-04,7.906140031708941765e-03
1.170610000000000000e+00,3.533146133721814684e-04,7.953369896559269597e-03
1.178107500000000000e+00,3.576886106670471434e-04,8.000533596728589061e-03
1.185605000000000000e+00,3.620864810045358595e-04,8.047630876788457871e-03
1.193102500000000000e+00,3.665081548860473827e-04,8.094661483827682302e-03
1.200600000000000000e+00,3.709535626133308528e-04,8.141625167449845213e-03
1.208097500000000000e+00,3.754226342924201127e-04,8.188521679770514872e-03
1.215595000000000000e+00,3.799152998378336359e-04,8.235350775414438176e-03
1.223092500000000000e+00,3.844314889765494832e-04,8.282112211512843158e-03
1.230590000000000000e+00,3.889711312522695238e-04,8.328805747699627796e-03
1.238087500000000000e+00,3.935341560295160389e-04,8.375431146108799560e-03
1.245585000000000000e+00,3.981204924976360603e-04,8.421988171369973811e-03
1.253082500000000000e+00,4.027300696749963106e-04,8.468476590605469867e-03
1.260580000000000000e+00,4.073628164131732655e-04,8.514896173425802461e-03
1.268077500000000000e+00,4.120186614009946802e-04,8.561246691925816776e-03
1.275575000000000000e+00,4.166975331686359756e-04,8.607527920680299593e-03
1.283072500000000000e+00,4.213993600919671307e-04,8.653739636739713609e-03
1.290570000000000000e+00,4.261240703963529736e-04,8.699881619625267348e-03
1.298067500000000000e+00,4.308715921611579874e-04,8.745953651324430908e-03
1.305565000000000000e+00,4.356418533235514260e-04,8.791955516285712702e-03
1.313062500000000000e+00,4.404347816829343285e-04,8.837887001413668661e-03
1.320560000000000000e+00,4.452503049047708728e-04,8.883747896063732760e-03
1.328057500000000000e+00,4.500883505250817974e-04,8.929537992036580898e-03
1.335555000000000000e+00,4.549488459542017581e-04,8.975257083572581521e-03
1.343052500000000000e+00,4.598317184812168593e-04,9.020904967346135214e-03
1.350550000000000000e+00,4.647368952779616191e-04,9.066481442459856446e-03
1.358047500000000000e+00,4.696643034030593034e-04,9.111986310438191516e-03
1.365545000000000000e+00,4.746138698062455068e-04,9.157419375221785909e-03
1.373042500000000000e+00,4.795855213323448442e-04,9.202780443160590504e-03
1.380540000000000000e+00,4.845791847253451651e-04,9.248069323007710243e-03
1.388037500000000000e+00,4.895947866327121905e-04,9.293285825912942291e-03
1.395535000000000000e+00,4.946322536092907438e-04,9.338429765415878769e-03
1.403032500000000000e+00,4.996915121214465108e-04,9.383500957438728474e-03
1.410530000000000000e+00,5.047724885511711010e-04,9.428499220280016357e-03
1.418027500000000000e+00,5.098751092002620257e-04,9.473424374606954218e-03
1.425525000000000000e+00,5.149993002943002024e-04,9.518276243448611090e-03
1.433022500000000000e+00,5.201449879866024140e-04,9.563054652188074031e-03
1.440520000000000000e+00,5.253120983625146406e-04,9.607759428555236875e-03
1.448017500000000000e+00,5.305005574434243669e-04,9.652390402619517862e-03
1.455515000000000000e+00,5.357102911905769734e-04,9.696947406781704706e-03
1.463012500000000000e+00,5.409412255093760079e-04,9.741430275766174360e-03
1.470510000000000000e+00,5.461932862532896740e-04,9.785838846613617581e-03
1.478007500000000000e+00,5.514663992278151083e-04,9.830172958672283787e-03
1.485505000000000000e+00,5.567604901946026849e-04,9.874432453590042957e-03
1.493002500000000000e+00,5.620754848752600478e-04,9.918617175306562034e-03
1.500500000000000000e+00,5.674113089556754750e-04,9.962726970044627831e-03
1.507997500000000000e+00,5.727678880894395124e-04,1.000676168630198343e-02
1.515495000000000000e+00,5.781451479023501589e-04,1.005072117484266843e-02
1.522992500000000000e+00,5.835430139960162124e-04,1.009460528868870617e-02
1.530490000000000000e+00,5.889614119518520128e-04,1.013841388311083509e-02
1.537987500000000000e+00,5.944002673350650291e-04,1.018214681562083432e-02
1.545485000000000000e+00,5.998595056984196670e-04,1.022580394596150043e-02
1.552982500000000000e+00,6.053390525862114126e-04,1.026938513609887763e-02
1.560480000000000000e+00,6.108388335382046539e-04,1.031289025021242187e-02
1.567977500000000000e+00,6.163587740932081633e-04,1.035631915468642784e-02
1.575475000000000000e+00,6.218987997932196770e-04,1.039967171810082282e-02
1.582972500000000000e+00,6.274588361870585143e-04,1.044294781122198472e-02
1.590470000000000000e+00,6.330388088342221936e-04,1.048614730699357414e-02
1.597967500000000000e+00,6.386386433085434458e-04,1.052927008052709570e-02
1.605465000000000000e+00,6.442582652022497925e-04,1.057231600909265198e-02
1.612962500000000000e+00,6.498976001293544974e-04,1.061528497210942334e-02
1.620460000000000000e+00,6.555565737295825698e-04,1.065817685113656238e-02
1.627957500000000000e+00,6.612351116720395971e-04,1.070099152986312731e-02
1.635455000000000000e+00,6.669331396589152708e-04,1.074372889409879600e-02
1.642952500000000000e+00,6.726505834290998510e-04,1.078638883176453143e-02
1.650450000000000000e+00,6.783873687619005948e-04,1.082897123288251509e-02
1.657947500000000000e+00,6.841434214804073370e-04,1.087147598956626944e-02
1.665445000000000000e+00,6.899186674555238784e-04,1.091390299601173279e-02
1.672942500000000000e+00,6.957130326092818501e-04,1.095625214848670523e-02
1.680440000000000000e+00,7.015264429183635034e-04,1.099852334532152795e-02
1.687937500000000000e+00,7.073588244177370392e-04,1.104071648689870268e-02
1.695435000000000000e+00,7.132101032041470888e-04,1.108283147564379130e-02
1.702932500000000000e+00,7.190802054397059167e-04,1.112486821601460854e-02
1.710430000000000000e+00,7.249690573550343544e-04,1.116682661449217712e-02
1.717927500000000000e+00,7.308765852531545195e-04,1.120870657957016153e-02
1.725425000000000000e+00,7.368027155125392432e-04,1.125050802174518486e-02
1.732922500000000000e+00,7.427473745906631574e-04,1.129223085350673957e-02
1.740420000000000000e+00,7.487104890273983075e-04,1.133387498932717646e-02
1.747917500000000000e+00,7.546919854482131993e-04,1.137544034565170399e-02
1.755415000000000000e+00,7.606917905677758199e-04,1.141692684088839449e-02
1.762912500000000000e+00,7.667098311927851399e-04,1.145833439539822168e-02
1.770410000000000000e+00,7.727460342257836019e-04,1.149966293148468877e-02
1.777907500000000000e+00,7.788003266679347381e-04,1.154091237338383813e-02
1.785405000000000000e+00,7.848726356225614641e-04,1.158208264725467049e-02
1.792902500000000000e+00,7.909628882980307071e-04,1.162317368116854224e-02
1.800400000000000000e+00,7.970710120112179742e-04,1.166418540509902256e-02
1.807897500000000000e+00,8.031969341904276506e-04,1.170511775091257096e-02
1.815395000000000000e+00,8.093405823785413062e-04,1.174597065235726163e-02
1.822892500000000000e+00,8.155018842362103454e-04,1.178674404505407509e-02
1.830390000000000000e+00,8.216807675447706681e-04,1.182743786648572312e-02
1.837887500000000000e+00,8.278771602091497409e-04,1.186805205598731768e-02
1.845385000000000000e+00,8.340909902612331532e-04,1.190858655473569366e-02
1.852882500000000000e+00,8.403221858623515601e-04,1.194904130574018196e-02
1.860380000000000000e+00,8.465706753067040510e-04,1.198941625383177084e-02
1.867877500000000000e+00,8.528363870238367438e-04,1.202971134565364829e-02
1.875375000000000000e+00,8.591192495816896103e-04,1.206992652965081618e-02
1.882872500000000000e+00,8.654191916894505296e-04,1.211006175606074015e-02
1.890370000000000000e+00,8.717361422004045717e-04,1.215011697690248846e-02
1.897867500000000000e+00,8.780700301144586705e-04,1.219009214596765596e-02
1.905365000000000000e+00,8.844207845813798104e-04,1.222998721880999215e-02
1.912862500000000000e+00,8.907883349029151838e-04,1.226980215273544735e-02
1.920360000000000000e+00,8.971726105359565436e-04,1.230953690679251547e-02
1.927857500000000000e+00,9.035735410949339045e-04,1.234919144176261675e-02
1.935355000000000000e+00,9.099910563545172667e-04,1.238876572014965816e-02
1.942852500000000000e+00,9.164250862522551298e-04,1.242825970617082026e-02
1.950350000000000000e+00,9.228755608910618703e-04,1.246767336574635017e-02
1.957847500000000000e+00,9.293424105417303792e-04,1.250700666649035356e-02
1.965345000000000000e+00,9.358255656454962006e-04,1.254625957770054076e-02
1.972842500000000000e+00,9.423249568164532427e-04,1.258543207034906394e-02
1.980340000000000000e+00,9.488405148439604895e-04,1.262452411707244183e-02
1.987837500000000000e+00,9.553721706950933819e-04,1.266353569216230844e-02
