# Frequency (GHz),Electric Dipole Moment * 377 (Vm),Magnetic Dipole Moment (Vm)
8.497500000000000000e-03,4.868848508034747879e-08,6.220376098260055645e-05
1.599499999999999814e-02,1.725063456608029902e-07,1.170864522668496187e-04
2.349250000000000000e-02,3.721254177588417653e-07,1.719676244511778886e-04
3.099000000000000000e-02,6.475406235722725291e-07,2.268465655833001675e-04
3.848750000000000000e-02,9.987449850188961264e-07,2.817225638666221604e-04
4.598500000000000000e-02,1.425729622045985049e-06,3.365949076949988181e-04
5.348250000000000000e-02,1.928483764351300367e-06,3.914628856953004943e-04
6.098000000000000000e-02,2.506994766363570848e-06,4.463257867686606581e-04
6.847750000000000000e-02,3.161248124967053266e-06,5.011829001295982182e-04
7.597500000000000000e-02,3.891227499795145427e-06,5.560335153427453051e-04
8.347250000000000000e-02,4.696914736096078911e-06,6.108769223566782279e-04
9.097000000000000000e-02,5.578289890081350721e-06,6.657124115346060335e-04
9.846750000000000000e-02,6.535331256716224603e-06,7.205392736815799696e-04
1.059650000000000000e-01,7.568006216374396081e-06,7.753568031811436043e-04
1.134625000000000000e-01,8.676293830735622818e-06,8.301642916256036456e-04
1.209600000000000000e-01,9.860168416870055137e-06,8.849610315465061567e-04
1.284575000000000000e-01,1.111960028798853838e-05,9.397463168230017370e-04
1.359550000000000000e-01,1.245455787348485618e-05,9.945194421246950599e-04
1.434525000000000000e-01,1.386500772178914902e-05,1.049279702959877991e-03
1.509500000000000000e-01,1.535091450325967960e-05,1.104026395723658842e-03
1.584475000000000000e-01,1.691224101340436342e-05,1.158758817745901342e-03
1.659450000000000000e-01,1.854894817614275706e-05,1.213476267339068859e-03
1.734425000000000000e-01,2.026099504729113792e-05,1.268178043845820651e-03
1.809400000000000000e-01,2.204833881816881989e-05,1.322863447686530719e-03
1.884375000000000000e-01,2.391093481946648841e-05,1.377531780406627757e-03
1.959350000000000000e-01,2.584873652512814231e-05,1.432182344723666222e-03
2.034325000000000000e-01,2.786169555654020031e-05,1.486814444574348186e-03
2.109300000000000000e-01,2.994976168680479236e-05,1.541427385161156169e-03
2.184275000000000000e-01,3.211288284516569316e-05,1.596020472999031730e-03
2.259250000000000000e-01,3.435100512168279209e-05,1.650593015961595656e-03
2.334225000000000000e-01,3.666407277195776450e-05,1.705144323327341914e-03
2.409200000000000000e-01,3.905202822208218074e-05,1.759673705825521520e-03
2.484175000000000000e-01,4.151481207377903340e-05,1.814180475681742132e-03
2.559150000000000000e-01,4.405236310959435809e-05,1.868663946663460737e-03
2.634125000000000000e-01,4.666461829835342670e-05,1.923123434125101642e-03
2.709100000000000000e-01,4.935151280072746821e-05,1.977558255053075802e-03
2.784075000000000000e-01,5.211297997496284372e-05,2.031967728110304662e-03
2.859050000000000000e-01,5.494895138279870999e-05,2.086351173680767862e-03
2.934025000000000000e-01,5.785935679548737050e-05,2.140707913913472184e-03
3.009000000000000000e-01,6.084412419995883890e-05,2.195037272766493363e-03
3.083975000000000000e-01,6.390317980523455899e-05,2.249338576050324227e-03
3.158950000000000000e-01,6.703644804892632935e-05,2.303611151471292220e-03
3.233925000000000000e-01,7.024385160387666216e-05,2.357854328674475596e-03
3.308900000000000000e-01,7.352531138498401210e-05,2.412067439286380652e-03
3.383875000000000000e-01,7.688074655617249545e-05,2.466249816957272450e-03
3.458850000000000000e-01,8.031007453747252987e-05,2.520400797403251833e-03
3.533825000000000000e-01,8.381321101236526060e-05,2.574519718447890095e-03
3.608800000000000000e-01,8.739006993507525661e-05,2.628605920063721828e-03
3.683775000000000000e-01,9.104056353827943201e-05,2.682658744413217358e-03
3.758750000000000000e-01,9.476460234066988475e-05,2.736677535889494965e-03
3.833725000000000000e-01,9.856209515486281264e-05,2.790661641156655381e-03
3.908700000000000000e-01,1.024329490954481724e-04,2.844610409189902468e-03
3.983675000000000000e-01,1.063770695870606975e-04,2.898523191315020755e-03
4.058650000000000000e-01,1.103943603726582017e-04,2.952399341247873791e-03
4.133625000000000000e-01,1.144847235220432729e-04,3.006238215133083709e-03
4.208600000000000000e-01,1.186480594402368374e-04,3.060039171582758059e-03
4.283575000000000000e-01,1.228842668764166342e-04,3.113801571714530994e-03
4.358550000000000000e-01,1.271932429325337087e-04,3.167524779189486057e-03
4.433525000000000000e-01,1.315748830724999417e-04,3.221208160249351693e-03
4.508500000000000000e-01,1.360290811310999341e-04,3.274851083753652949e-03
4.583475000000000000e-01,1.405557293233957556e-04,3.328452921216305902e-03
4.658450000000000000e-01,1.451547182540040021e-04,3.382013046841664781e-03
4.733425000000000000e-01,1.498259369266698702e-04,3.435530837560501431e-03
4.808400000000000000e-01,1.545692727538969594e-04,3.489005673065194608e-03
4.883375000000000000e-01,1.593846115666915661e-04,3.542436935844819976e-03
4.958350000000000000e-01,1.642718376244872269e-04,3.595824011219691044e-03
5.033324999999999404e-01,1.692308336251691699e-04,3.649166287375345871e-03
5.108300000000000000e-01,1.742614807152432100e-04,3.702463155396301317e-03
5.183275000000000596e-01,1.793636585000413708e-04,3.755714009299303355e-03
5.258250000000000000e-01,1.845372450542227892e-04,3.808918246066252990e-03
5.333225000000000596e-01,1.897821169322531801e-04,3.862075265676255271e-03
5.408200000000000000e-01,1.950981491789781114e-04,3.915184471137897297e-03
5.483175000000000000e-01,2.004852153404847041e-04,3.968245268520563876e-03
5.558150000000000000e-01,2.059431874749290711e-04,4.021257066985435731e-03
5.633125000000000000e-01,2.114719361635058689e-04,4.074219278816104337e-03
5.708100000000000000e-01,2.170713305216549088e-04,4.127131319448766947e-03
5.783075000000000000e-01,2.227412382100867072e-04,4.179992607501685671e-03
5.858050000000000000e-01,2.284815254463372076e-04,4.232802564804615322e-03
5.933025000000000000e-01,2.342920570160601530e-04,4.285560616427291046e-03
6.008000000000000000e-01,2.401726962845869573e-04,4.338266190707949777e-03
6.082975000000000000e-01,2.461233052086183085e-04,4.390918719280858563e-03
6.157950000000000000e-01,2.521437443480330004e-04,4.443517637103767438e-03
6.232925000000000000e-01,2.582338728775821911e-04,4.496062382484729107e-03
6.307900000000000000e-01,2.643935485990458307e-04,4.548552397108465012e-03
6.382875000000000000e-01,2.706226279531578818e-04,4.600987126062138985e-03
6.457850000000000000e-01,2.769209660318252783e-04,4.653366017860879368e-03
6.532825000000000000e-01,2.832884165903992507e-04,4.705688524472631529e-03
6.607800000000000000e-01,2.897248320599866045e-04,4.757954101342571490e-03
6.682775000000000000e-01,2.962300635599262309e-04,4.810162207417017360e-03
6.757750000000000000e-01,3.028039609103154364e-04,4.862312305167020704e-03
6.832725000000000000e-01,3.094463726446569445e-04,4.914403860611024633e-03
6.907700000000000000e-01,3.161571460225056805e-04,4.966436343337619040e-03
6.982675000000000000e-01,3.229361270423901841e-04,5.018409226527403323e-03
7.057650000000000000e-01,3.297831604546157909e-04,5.070321986974290519e-03
7.132625000000000000e-01,3.366980897742622098e-04,5.122174105106858284e-03
7.207600000000000000e-01,3.436807572942022441e-04,5.173965065008389284e-03
7.282575000000000000e-01,3.507310040982477965e-04,5.225694354437174401e-03
7.357550000000000000e-01,3.578486700744653898e-04,5.277361464845932090e-03
7.432525000000000000e-01,3.650335939282406406e-04,5.328965891400547737e-03
7.507500000000000000e-01,3.722856131958652095e-04,5.380507132998970862e-03
7.582475000000000000e-01,3.796045642577720370e-04,5.431984692288804352e-03
7.657450000000000000e-01,3.869902823522305513e-04,5.483398075685113997e-03
7.732425000000000000e-01,3.944426015887384624e-04,5.534746793387217145e-03
7.807400000000000000e-01,4.019613549617560562e-04,5.586030359395158240e-03
7.882375000000000000e-01,4.095463743643826997e-04,5.637248291525831338e-03
7.957350000000000000e-01,4.171974906021420925e-04,5.688400111428295117e-03
8.032325000000000000e-01,4.249145334067394911e-04,5.739485344598957775e-03
8.107300000000000000e-01,4.326973314500231972e-04,5.790503520395801768e-03
8.182275000000000000e-01,4.405457123578972027e-04,5.841454172052779406e-03
8.257250000000000000e-01,4.484595027243200283e-04,5.892336836692840633e-03
8.332225000000000000e-01,4.564385281253000937e-04,5.943151055341190647e-03
8.407200000000000000e-01,4.644826131330714977e-04,5.993896372937764297e-03
8.482175000000000000e-01,4.725915813302170531e-04,6.044572338349156644e-03
8.557150000000000000e-01,4.807652553238574026e-04,6.095178504380243008e-03
8.632125000000000000e-01,4.890034567598915268e-04,6.145714427784981088e-03
8.707100000000000000e-01,4.973060063372845233e-04,6.196179669277362273e-03
8.782075000000000000e-01,5.056727238223736537e-04,6.246573793540821651e-03
8.857050000000000000e-01,5.141034280633550741e-04,6.296896369238326290e-03
8.932025000000000000e-01,5.225979370044290953e-04,6.347146969021236207e-03
9.007000000000000000e-01,5.311560677006087585e-04,6.397325169537777627e-03
9.081975000000000000e-01,5.397776363317578676e-04,6.447430551441299396e-03
9.156950000000000000e-01,5.484624582175658819e-04,6.497462699397785202e-03
9.231925000000000000e-01,5.572103478316102346e-04,6.547421202092869666e-03
9.306900000000000000e-01,5.660211188163792552e-04,6.597305652238818867e-03
9.381875000000000000e-01,5.748945839974338012e-04,6.647115646580254930e-03
9.456850000000000000e-01,5.838305553983612253e-04,6.696850785900306489e-03
9.531825000000000000e-01,5.928288442552543530e-04,6.746510675025432953e-03
9.606800000000000000e-01,6.018892610313136262e-04,6.796094922830440456e-03
9.681775000000000000e-01,6.110116154316476552e-04,6.845603142242666882e-03
9.756750000000000000e-01,6.201957164178878304e-04,6.895034950245838151e-03
9.831725000000000000e-01,6.294413722229542886e-04,6.944389967883329504e-03
9.906700000000000000e-01,6.387483903656103511e-04,6.993667820261175241e-03
9.981675000000000000e-01,6.481165776654292847e-04,7.042868136550600559e-03
1.005665000000000000e+00,6.575457402573013600e-04,7.091990549989721573e-03
1.013162500000000000e+00,6.670356836063381619e-04,7.141034697885373719e-03
1.020659999999999881e+00,6.765862125225576744e-04,7.190000221614043299e-03
1.028157500000000000e+00,6.861971311755495247e-04,7.238886766622613413e-03
1.035655000000000000e+00,6.958682431093342986e-04,7.287693982428388242e-03
1.043152499999999881e+00,7.055993512570992582e-04,7.336421522619198006e-03
1.050650000000000119e+00,7.153902579558673799e-04,7.385069044852434449e-03
1.058147500000000000e+00,7.252407649612491181e-04,7.433636210853868630e-03
1.065645000000000000e+00,7.351506734622990100e-04,7.482122686416691620e-03
1.073142500000000119e+00,7.451197840959661398e-04,7.530528141398773641e-03
1.080640000000000000e+00,7.551478969621642232e-04,7.578852249720854743e-03
1.088137500000000000e+00,7.652348116380965201e-04,7.627094689363718080e-03
1.095635000000000000e+00,7.753803271932160901e-04,7.675255142364759489e-03
1.103132500000000000e+00,7.855842422037365375e-04,7.723333294814423503e-03
1.110630000000000000e+00,7.958463547672930266e-04,7.771328836852216954e-03
1.118127500000000000e+00,8.061664625176971893e-04,7.819241462662544773e-03
1.125625000000000000e+00,8.165443626393162476e-04,7.867070870469389590e-03
1.133122500000000000e+00,8.269798518819046831e-04,7.914816762531608901e-03
1.140620000000000000e+00,8.374727265748464246e-04,7.962478845136742103e-03
1.148117500000000000e+00,8.480227826419896612e-04,8.010056828595768161e-03
1.155615000000000000e+00,8.586298156159241591e-04,8.057550427236033139e-03
1.163112500000000000e+00,8.692936206526697069e-04,8.104959359394954890e-03
1.170610000000000000e+00,8.800139925457471082e-04,8.152283347412790995e-03
1.178107500000000000e+00,8.907907257409884922e-04,8.199522117624896689e-03
1.185605000000000000e+00,9.016236143505457473e-04,8.246675400354216978e-03
1.193102500000000000e+00,9.125124521673909665e-04,8.293742929902906194e-03
1.200600000000000000e+00,9.234570326796682485e-04,8.340724444543815702e-03
1.208097500000000000e+00,9.344571490846946505e-04,8.387619686511369257e-03
1.215595000000000000e+00,9.455125943033679346e-04,8.434428401992473054e-03
1.223092500000000000e+00,9.566231609941444267e-04,8.481150341117182911e-03
1.230590000000000000e+00,9.677886415673645805e-04,8.527785257947966338e-03
1.238087500000000000e+00,9.790088281990514014e-04,8.574332910470203184e-03
1.245585000000000000e+00,9.902835128451077489e-04,8.620793060581078207e-03
1.253082500000000000e+00,1.001612487255209519e-03,8.667165474079020077e-03
1.260580000000000000e+00,1.012995542986641151e-03,8.713449920652075256e-03
1.268077500000000000e+00,1.024432471418197264e-03,8.759646173866365154e-03
1.275575000000000000e+00,1.035923063763981083e-03,8.805754011154739297e-03
1.283072500000000000e+00,1.047467111087171856e-03,8.851773213803704188e-03
1.290570000000000000e+00,1.059064404313577595e-03,8.897703566941852701e-03
1.298067500000000000e+00,1.070714734245323350e-03,8.943544859526230892e-03
1.305565000000000000e+00,1.082417891574408934e-03,8.989296884329927781e-03
1.313062500000000000e+00,1.094173666896107715e-03,9.034959437928358900e-03
1.320560000000000000e+00,1.105981850722590918e-03,9.080532320685610545e-03
1.328057500000000000e+00,1.117842233496055141e-03,9.126015336740898529e-03
1.335555000000000000e+00,1.129754605601965235e-03,9.171408293993724148e-03
1.343052500000000000e+00,1.141718757382665598e-03,9.216711004090084869e-03
1.350550000000000000e+00,1.153734479149987491e-03,9.261923282407430805e-03
1.358047500000000000e+00,1.165801561198797449e-03,9.307044948039404353e-03
1.365545000000000000e+00,1.177919793819648181e-03,9.352075823781438521e-03
1.373042500000000000e+00,1.190088967311918019e-03,9.397015736114358586e-03
1.380540000000000000e+00,1.202308871996505841e-03,9.441864515189357654e-03
1.388037500000000000e+00,1.214579298228792275e-03,9.486621994811397091e-03
1.395535000000000000e+00,1.226900036411142283e-03,9.531288012423982589e-03
1.403032500000000000e+00,1.239270877005559318e-03,9.575862409091518562e-03
1.410530000000000000e+00,1.251691610546395647e-03,9.620345029483872573e-03
1.418027500000000000e+00,1.264162027652561545e-03,9.664735721858714115e-03
1.425525000000000000e+00,1.276681919039922937e-03,9.709034338044661774e-03
1.433022500000000000e+00,1.289251075533867728e-03,9.753240733424203140e-03
1.440520000000000000e+00,1.301869288081080028e-03,9.797354766916052671e-03
1.448017500000000000e+00,1.314536347762019749e-03,9.841376300957719453e-03
1.455515000000000000e+00,1.327252045802721327e-03,9.885305201487046278e-03
1.463012500000000000e+00,1.340016173586820996e-03,9.929141337925138228e-03
1.470510000000000000e+00,1.352828522667408632e-03,9.972884583157058669e-03
1.478007500000000000e+00,1.365688884778679677e-03,1.001653481351430161e-02
1.485505000000000000e+00,1.378597051847886730e-03,1.006009190875563342e-02
1.493002500000000000e+00,1.391552816006422048e-03,1.010355575204874290e-02
1.500500000000000000e+00,1.404555969601955622e-03,1.014692622995130508e-02
1.507997500000000000e+00,1.417606305209043226e-03,1.019020323239125912e-02
1.515495000000000000e+00,1.430703615641247366e-03,1.023338665264867352e-02
1.522992500000000000e+00,1.443847693961595275e-03,1.027647638733574301e-02
1.530490000000000000e+00,1.457038333494216093e-03,1.031947233637687221e-02
1.537987500000000000e+00,1.470275327834976668e-03,1.036237440299033093e-02
1.545485000000000000e+00,1.483558470862743383e-03,1.040518249366692745e-02
1.552982500000000000e+00,1.496887556749799822e-03,1.044789651815117293e-02
1.560480000000000000e+00,1.510262379972859446e-03,1.049051638942111522e-02
1.567977500000000000e+00,1.523682735323606419e-03,1.053304202366758813e-02
1.575475000000000000e+00,1.537148417918970597e-03,1.057547334027455349e-02
1.582972500000000000e+00,1.550659223211898856e-03,1.061781026179847882e-02
1.590470000000000000e+00,1.564214947001513634e-03,1.066005271394784501e-02
1.597967500000000000e+00,1.577815385443129877e-03,1.070220062556279973e-02
1.605465000000000000e+00,1.591460335058623912e-03,1.074425392859412742e-02
1.612962500000000000e+00,1.605149592746287325e-03,1.078621255808241697e-02
1.620460000000000000e+00,1.618882955790762164e-03,1.082807645213790769e-02
1.627957500000000000e+00,1.632660221872847539e-03,1.086984555191866826e-02
1.635455000000000000e+00,1.646481189079068794e-03,1.091151980161011309e-02
1.642952500000000000e+00,1.660345655911427088e-03,1.095309914840360797e-02
1.650450000000000000e+00,1.674253421296697728e-03,1.099458354247557883e-02
1.657947500000000000e+00,1.688204284595999334e-03,1.103597293696615897e-02
1.665445000000000000e+00,1.702198045613798798e-03,1.107726728795786070e-02
1.672942500000000000e+00,1.716234504607322799e-03,1.111846655445393288e-02
1.680440000000000000e+00,1.730313462295423113e-03,1.115957069835769172e-02
1.687937500000000000e+00,1.744434719867534725e-03,1.120057968445045508e-02
1.695435000000000000e+00,1.758598078992561512e-03,1.124149348037020539e-02
1.702932500000000000e+00,1.772803341827597140e-03,1.128231205658981363e-02
1.710430000000000000e+00,1.787050311026519957e-03,1.132303538639627995e-02
1.717927500000000000e+00,1.801338789748465827e-03,1.136366344586787862e-02
1.725425000000000000e+00,1.815668581666283815e-03,1.140419621385365366e-02
1.732922500000000000e+00,1.830039490974776127e-03,1.144463367195104955e-02
1.740420000000000000e+00,1.844451322398905089e-03,1.148497580448453598e-02
1.747917500000000000e+00,1.858903881201769180e-03,1.152522259848376418e-02
1.755415000000000000e+00,1.873396973192743885e-03,1.156537404366177191e-02
1.762912500000000000e+00,1.887930404735169328e-03,1.160543013239358559e-02
1.770410000000000000e+00,1.902503982754177999e-03,1.164539085969400027e-02
1.777907500000000000e+00,1.917117514744281787e-03,1.168525622319652180e-02
1.785405000000000000e+00,1.931770808776907397e-03,1.172502622313064367e-02
1.792902500000000000e+00,1.946463673507742255e-03,1.176470086230094018e-02
1.800400000000000000e+00,1.961195918184181243e-03,1.180428014606513427e-02
1.807897500000000000e+00,1.975967352652533825e-03,1.184376408231226432e-02
1.815395000000000000e+00,1.990777787364771904e-03,1.188315268144065143e-02
1.822892500000000000e+00,2.005627033385970481e-03,1.192244595633695260e-02
1.830390000000000000e+00,2.020514902400769724e-03,1.196164392235410205e-02
1.837887500000000000e+00,2.035441206720397991e-03,1.200074659728923680e-02
1.845385000000000000e+00,2.050405759289236022e-03,1.203975400136276033e-02
1.852882500000000000e+00,2.065408373691247131e-03,1.207866615719647117e-02
1.860380000000000000e+00,2.080448864156578259e-03,1.211748308979198295e-02
1.867877500000000000e+00,2.095527045567878270e-03,1.215620482650925024e-02
1.875375000000000000e+00,2.110642733466157848e-03,1.219483139704473709e-02
1.882872500000000000e+00,2.125795744057449969e-03,1.223336283341054653e-02
1.890370000000000000e+00,2.140985894218403081e-03,1.227179916991274697e-02
1.897867500000000000e+00,2.156213001502148372e-03,1.231014044312963955e-02
1.905365000000000000e+00,2.171476884144481895e-03,1.234838669189131447e-02
1.912862500000000000e+00,2.186777361068980696e-03,1.238653795725746555e-02
1.920360000000000000e+00,2.202114251893070012e-03,1.242459428249673668e-02
1.927857500000000000e+00,2.217487376933061343e-03,1.246255571306523376e-02
1.935355000000000000e+00,2.232896557209774254e-03,1.250042229658608443e-02
1.942852500000000000e+00,2.248341614453818610e-03,1.253819408282727706e-02
1.950350000000000000e+00,2.263822371110407999e-03,1.257587112368183796e-02
1.957847500000000000e+00,2.279338650344788116e-03,1.261345347314629835e-02
1.965345000000000000e+00,2.294890276046757886e-03,1.265094118729989843e-02
1.972842500000000000e+00,2.310477072835817255e-03,1.268833432428390084e-02
1.980340000000000000e+00,2.326098866065840105e-03,1.272563294428111572e-02
1.987837500000000000e+00,2.341755481829546365e-03,1.276283710949482203e-02
