# Frequency (GHz),Output Power (W)
8.497500000000000000e-03,1.100654472173045425e-09
1.599499999999999814e-02,3.899712453459722125e-09
2.349250000000000000e-02,8.412309044218296602e-09
3.099000000000000000e-02,1.463827029267059107e-08
3.848750000000000000e-02,2.257735621154091191e-08
4.598500000000000000e-02,3.222926079976652400e-08
5.348250000000000000e-02,4.359361206900708785e-08
6.098000000000000000e-02,5.666997207523931113e-08
6.847750000000000000e-02,7.145783695516572026e-08
7.597500000000000000e-02,8.795663696708914843e-08
8.347250000000000000e-02,1.061657365357933455e-07
9.097000000000000000e-02,1.260844343009779827e-07
9.846750000000000000e-02,1.477119631686769145e-07
1.059650000000000000e-01,1.710474922874433249e-07
1.134625000000000000e-01,1.960901235102128108e-07
1.209600000000000000e-01,2.228388933506983052e-07
1.284575000000000000e-01,2.512927734132760267e-07
1.359550000000000000e-01,2.814506701545934299e-07
1.434525000000000000e-01,3.133114250010232410e-07
1.509500000000000000e-01,3.468738144729611749e-07
1.584475000000000000e-01,3.821365503160667292e-07
1.659450000000000000e-01,4.190982796392603095e-07
1.734425000000000000e-01,4.577575850595938156e-07
1.809400000000000000e-01,4.981129848539038963e-07
1.884375000000000000e-01,5.401629331171874709e-07
1.959350000000000000e-01,5.839058199276672738e-07
2.034325000000000000e-01,6.293399715186062948e-07
2.109300000000000000e-01,6.764636504567235161e-07
2.184275000000000000e-01,7.252750558271313808e-07
2.259250000000000000e-01,7.757723234250207250e-07
2.334225000000000000e-01,8.279535259536338711e-07
2.409200000000000000e-01,8.818166732288856591e-07
2.484175000000000000e-01,9.373597123903554363e-07
2.559150000000000000e-01,9.945805281185647726e-07
2.634125000000000000e-01,1.053476942858795858e-06
2.709100000000000000e-01,1.114046717051062325e-06
2.784075000000000000e-01,1.176287549366201046e-06
2.859050000000000000e-01,1.240197076948486089e-06
2.934025000000000000e-01,1.305772875663944048e-06
3.009000000000000000e-01,1.373012460355152141e-06
3.083975000000000000e-01,1.441913285101817096e-06
3.158950000000000000e-01,1.512472743487317365e-06
3.233925000000000000e-01,1.584688168871272816e-06
3.308900000000000000e-01,1.658556834667962771e-06
3.383875000000000000e-01,1.734075954630377233e-06
3.458850000000000000e-01,1.811242683140133610e-06
3.533825000000000000e-01,1.890054115503078502e-06
3.608800000000000000e-01,1.970507288250411093e-06
3.683775000000000000e-01,2.052599179445351431e-06
3.758750000000000000e-01,2.136326708995323947e-06
3.833725000000000000e-01,2.221686738969691163e-06
3.908700000000000000e-01,2.308676073922409926e-06
3.983675000000000000e-01,2.397291461220389662e-06
4.058650000000000000e-01,2.487529591376976023e-06
4.133625000000000000e-01,2.579387098390351983e-06
4.208600000000000000e-01,2.672860560087192235e-06
4.283575000000000000e-01,2.767946498471264259e-06
4.358550000000000000e-01,2.864641380076955733e-06
4.433525000000000000e-01,2.962941616327749043e-06
4.508500000000000000e-01,3.062843563899177013e-06
4.583475000000000000e-01,3.164343525086717274e-06
4.658450000000000000e-01,3.267437748178477860e-06
4.733425000000000000e-01,3.372122427831746132e-06
4.808400000000000000e-01,3.478393705455039600e-06
4.883375000000000000e-01,3.586247669593653295e-06
4.958350000000000000e-01,3.695680356319740469e-06
5.033324999999999404e-01,3.806687749627098979e-06
5.108300000000000000e-01,3.919265781829524105e-06
5.183275000000000596e-01,4.033410333963391876e-06
5.258250000000000000e-01,4.149117236194447489e-06
5.333225000000000596e-01,4.266382268228570974e-06
5.408200000000000000e-01,4.385201159725780639e-06
5.483175000000000000e-01,4.505569590718474223e-06
5.558150000000000000e-01,4.627483192033606211e-06
5.633125000000000000e-01,4.750937545717578194e-06
5.708100000000000000e-01,4.875928185465635446e-06
5.783075000000000000e-01,5.002450597053843561e-06
5.858050000000000000e-01,5.130500218774843710e-06
5.933025000000000000e-01,5.260072441876933341e-06
6.008000000000000000e-01,5.391162611005857389e-06
6.082975000000000000e-01,5.523766024650274763e-06
6.157950000000000000e-01,5.657877935589670216e-06
6.232925000000000000e-01,5.793493551345545922e-06
6.307900000000000000e-01,5.930608034635247335e-06
6.382875000000000000e-01,6.069216503828837509e-06
6.457850000000000000e-01,6.209314033408047506e-06
6.532825000000000000e-01,6.350895654428543776e-06
6.607800000000000000e-01,6.493956354983640581e-06
6.682775000000000000e-01,6.638491080671670752e-06
6.757750000000000000e-01,6.784494735065040347e-06
6.832725000000000000e-01,6.931962180180973991e-06
6.907700000000000000e-01,7.080888236955467921e-06
6.982675000000000000e-01,7.231267685718541543e-06
7.057650000000000000e-01,7.383095266671607411e-06
7.132625000000000000e-01,7.536365680367472093e-06
7.207600000000000000e-01,7.691073588190218454e-06
7.282575000000000000e-01,7.847213612839351048e-06
7.357550000000000000e-01,8.004780338813592547e-06
7.432525000000000000e-01,8.163768312897079800e-06
7.507500000000000000e-01,8.324172044646954959e-06
7.582475000000000000e-01,8.485986006882108580e-06
7.657450000000000000e-01,8.649204636173144130e-06
7.732425000000000000e-01,8.813822333334180563e-06
7.807400000000000000e-01,8.979833463915722162e-06
7.882375000000000000e-01,9.147232358696644070e-06
7.957350000000000000e-01,9.316013314180672183e-06
8.032325000000000000e-01,9.486170593090103410e-06
8.107300000000000000e-01,9.657698424863442606e-06
8.182275000000000000e-01,9.830591006150869420e-06
8.257250000000000000e-01,1.000484250131293741e-05
8.332225000000000000e-01,1.018044704291811780e-05
8.407200000000000000e-01,1.035739873224187808e-05
8.482175000000000000e-01,1.053569163976430540e-05
8.557150000000000000e-01,1.071531980567143485e-05
8.632125000000000000e-01,1.089627724035304735e-05
8.707100000000000000e-01,1.107855792490325767e-05
8.782075000000000000e-01,1.126215581161990132e-05
8.857050000000000000e-01,1.144706482450419587e-05
8.932025000000000000e-01,1.163327885976129515e-05
9.007000000000000000e-01,1.182079178629878836e-05
9.081975000000000000e-01,1.200959744622694767e-05
9.156950000000000000e-01,1.219968965535667680e-05
9.231925000000000000e-01,1.239106220369981443e-05
9.306900000000000000e-01,1.258370885596545317e-05
9.381875000000000000e-01,1.277762335205979234e-05
9.456850000000000000e-01,1.297279940758133203e-05
9.531825000000000000e-01,1.316923071431873710e-05
9.606800000000000000e-01,1.336691094074637511e-05
9.681775000000000000e-01,1.356583373251903104e-05
9.756750000000000000e-01,1.376599271296570208e-05
9.831725000000000000e-01,1.396738148358424791e-05
9.906700000000000000e-01,1.416999362453233609e-05
9.981675000000000000e-01,1.437382269511884654e-05
1.005665000000000000e+00,1.457886223429475083e-05
1.013162500000000000e+00,1.478510576114075586e-05
1.020659999999999881e+00,1.499254677535629931e-05
1.028157500000000000e+00,1.520117875774491821e-05
1.035655000000000000e+00,1.541099517069975973e-05
1.043152499999999881e+00,1.562198945868691511e-05
1.050650000000000119e+00,1.583415504872761861e-05
1.058147500000000000e+00,1.604748535087864220e-05
1.065645000000000000e+00,1.626197375871181960e-05
1.073142500000000119e+00,1.647761364978954002e-05
1.080640000000000000e+00,1.669439838614306096e-05
1.088137500000000000e+00,1.691232131474380067e-05
1.095635000000000000e+00,1.713137576797766308e-05
1.103132500000000000e+00,1.735155506411232553e-05
1.110630000000000000e+00,1.757285250776792485e-05
1.118127500000000000e+00,1.779526139038224101e-05
1.125625000000000000e+00,1.801877499067434271e-05
1.133122500000000000e+00,1.824338657510836834e-05
1.140620000000000000e+00,1.846908939835095433e-05
1.148117500000000000e+00,1.869587670373255294e-05
1.155615000000000000e+00,1.892374172369938877e-05
1.163112500000000000e+00,1.915267768026930815e-05
1.170610000000000000e+00,1.938267778548138082e-05
1.178107500000000000e+00,1.961373524184669093e-05
1.185605000000000000e+00,1.984584324279179597e-05
1.193102500000000000e+00,2.007899497310464904e-05
1.200600000000000000e+00,2.031318360937598428e-05
1.208097500000000000e+00,2.054840232043732100e-05
1.215595000000000000e+00,2.078464426779761258e-05
1.223092500000000000e+00,2.102190260607846890e-05
1.230590000000000000e+00,2.126017048344237898e-05
1.238087500000000000e+00,2.149944104202556510e-05
1.245585000000000000e+00,2.173970741835911402e-05
1.253082500000000000e+00,2.198096274379642036e-05
1.260580000000000000e+00,2.222320014493080767e-05
1.268077500000000000e+00,2.246641274401450821e-05
1.275575000000000000e+00,2.271059365937289933e-05
1.283072500000000000e+00,2.295573600581761499e-05
1.290570000000000000e+00,2.320183289505417870e-05
1.298067500000000000e+00,2.344887743608992098e-05
1.305565000000000000e+00,2.369686273563598801e-05
1.313062500000000000e+00,2.394578189850857437e-05
1.320560000000000000e+00,2.419562802802685908e-05
1.328057500000000000e+00,2.444639422640669299e-05
1.335555000000000000e+00,2.469807359515224988e-05
1.343052500000000000e+00,2.495065923544497041e-05
1.350550000000000000e+00,2.520414424852953134e-05
1.358047500000000000e+00,2.545852173609428190e-05
1.365545000000000000e+00,2.571378480065368254e-05
1.373042500000000000e+00,2.596992654592142298e-05
1.380540000000000000e+00,2.622694007718520375e-05
1.388037500000000000e+00,2.648481850167754692e-05
1.395535000000000000e+00,2.674355492894183630e-05
1.403032500000000000e+00,2.700314247119415972e-05
1.410530000000000000e+00,2.726357424368775688e-05
1.418027500000000000e+00,2.752484336506763808e-05
1.425525000000000000e+00,2.778694295772696492e-05
1.433022500000000000e+00,2.804986614815541801e-05
1.440520000000000000e+00,2.831360606728848284e-05
1.448017500000000000e+00,2.857815585085388287e-05
1.455515000000000000e+00,2.884350863971030802e-05
1.463012500000000000e+00,2.910965758018572300e-05
1.470510000000000000e+00,2.937659582441620761e-05
1.478007500000000000e+00,2.964431653067321301e-05
1.485505000000000000e+00,2.991281286369322013e-05
1.493002500000000000e+00,3.018207799500536188e-05
1.500500000000000000e+00,3.045210510325127633e-05
1.507997500000000000e+00,3.072288737450527840e-05
1.515495000000000000e+00,3.099441800258910713e-05
1.522992500000000000e+00,3.126669018938578188e-05
1.530490000000000000e+00,3.153969714514511018e-05
1.537987500000000000e+00,3.181343208879605991e-05
1.545485000000000000e+00,3.208788824824215699e-05
1.552982500000000000e+00,3.236305886066791475e-05
1.560480000000000000e+00,3.263893717282973899e-05
1.567977500000000000e+00,3.291551644135195577e-05
1.575475000000000000e+00,3.319278993301585972e-05
1.582972500000000000e+00,3.347075092504670917e-05
1.590470000000000000e+00,3.374939270539731274e-05
1.597967500000000000e+00,3.402870857302765865e-05
1.605465000000000000e+00,3.430869183818273475e-05
1.612962500000000000e+00,3.458933582266565258e-05
1.620460000000000000e+00,3.487063386011098835e-05
1.627957500000000000e+00,3.515257929624882673e-05
1.635455000000000000e+00,3.543516548917110198e-05
1.642952500000000000e+00,3.571838580959485574e-05
1.650450000000000000e+00,3.600223364111787837e-05
1.657947500000000000e+00,3.628670238047266975e-05
1.665445000000000000e+00,3.657178543778388308e-05
1.672942500000000000e+00,3.685747623681252788e-05
1.680440000000000000e+00,3.714376821520469951e-05
1.687937500000000000e+00,3.743065482473142502e-05
1.695435000000000000e+00,3.771812953153334726e-05
1.702932500000000000e+00,3.800618581635185645e-05
1.710430000000000000e+00,3.829481717476859720e-05
1.717927500000000000e+00,3.858401711743258180e-05
1.725425000000000000e+00,3.887377917028981064e-05
1.732922500000000000e+00,3.916409687480761401e-05
1.740420000000000000e+00,3.945496378819694062e-05
1.747917500000000000e+00,3.974637348363146809e-05
1.755415000000000000e+00,4.003831955046403005e-05
1.762912500000000000e+00,4.033079559444086124e-05
1.770410000000000000e+00,4.062379523790985244e-05
1.777907500000000000e+00,4.091731212002854787e-05
1.785405000000000000e+00,4.121133989697254918e-05
1.792902500000000000e+00,4.150587224213393798e-05
1.800400000000000000e+00,4.180090284631980007e-05
1.807897500000000000e+00,4.209642541795423939e-05
1.815395000000000000e+00,4.239243368326362752e-05
1.822892500000000000e+00,4.268892138647709296e-05
1.830390000000000000e+00,4.298588229000709505e-05
1.837887500000000000e+00,4.328331017464019610e-05
1.845385000000000000e+00,4.358119883971552783e-05
1.852882500000000000e+00,4.387954210331086079e-05
1.860380000000000000e+00,4.417833380241463341e-05
1.867877500000000000e+00,4.447756779310494692e-05
1.875375000000000000e+00,4.477723795071934473e-05
1.882872500000000000e+00,4.507733817002913850e-05
1.890370000000000000e+00,4.537786236540074426e-05
1.897867500000000000e+00,4.567880447096646455e-05
1.905365000000000000e+00,4.598015844078418463e-05
1.912862500000000000e+00,4.628191824899611324e-05
1.920360000000000000e+00,4.658407788998880406e-05
1.927857500000000000e+00,4.688663137854953152e-05
1.935355000000000000e+00,4.718957275001434544e-05
1.942852500000000000e+00,4.749289606042293569e-05
1.950350000000000000e+00,4.779659538666326482e-05
1.957847500000000000e+00,4.810066482662104560e-05
1.965345000000000000e+00,4.840509849931906784e-05
1.972842500000000000e+00,4.870989054506197997e-05
1.980340000000000000e+00,4.901503512557180083e-05
1.987837500000000000e+00,4.932052642412701596e-05
1.995335000000000000e+00,4.962635864569767602e-05
2.002832499999999762e+00,4.993252601707312934e-05
2.010330000000000238e+00,5.023902278699617839e-05
2.017827500000000000e+00,5.054584322629240476e-05
2.025325000000000000e+00,5.085298162798639564e-05
2.032822500000000000e+00,5.116043230744075888e-05
2.040320000000000000e+00,5.146818960246121602e-05
2.047817499999999762e+00,5.177624787342798056e-05
2.055314999999999762e+00,5.208460150340896893e-05
2.062812500000000238e+00,5.239324489827297765e-05
2.070310000000000000e+00,5.270217248680788853e-05
2.077807500000000000e+00,5.301137872082673744e-05
2.085305000000000000e+00,5.332085807528035622e-05
2.092802500000000000e+00,5.363060504836551502e-05
2.100299999999999762e+00,5.394061416162714223e-05
2.107797500000000238e+00,5.425087996006278741e-05
2.115295000000000238e+00,5.456139701222995048e-05
2.122792500000000000e+00,5.487215991033436290e-05
2.130290000000000000e+00,5.518316327034064405e-05
2.137787500000000000e+00,5.549440173206020971e-05
2.145285000000000000e+00,5.580586995924587547e-05
2.152782500000000000e+00,5.611756263968888602e-05
2.160280000000000000e+00,5.642947448530605118e-05
2.167777500000000000e+00,5.674160023222970075e-05
2.175275000000000000e+00,5.705393464089383117e-05
2.182772500000000000e+00,5.736647249612127536e-05
2.190270000000000000e+00,5.767920860720780296e-05
2.197767500000000000e+00,5.799213780799863786e-05
2.205265000000000000e+00,5.830525495697584491e-05
2.212762500000000000e+00,5.861855493733661611e-05
2.220260000000000000e+00,5.893203265706204965e-05
2.227757500000000000e+00,5.924568304900110108e-05
2.235255000000000000e+00,5.955950107093977569e-05
2.242752500000000000e+00,5.987348170567690075e-05
2.250250000000000000e+00,6.018761996109095973e-05
2.257747500000000000e+00,6.050191087020807861e-05
2.265245000000000000e+00,6.081634949127554153e-05
2.272742500000000000e+00,6.113093090781825741e-05
2.280240000000000000e+00,6.144565022871066964e-05
2.287737500000000000e+00,6.176050258823916549e-05
2.295235000000000000e+00,6.207548314615371802e-05
2.302732500000000000e+00,6.239058708773929430e-05
2.310230000000000000e+00,6.270580962386675876e-05
2.317727500000000000e+00,6.302114599105106769e-05
2.325225000000000000e+00,6.333659145150499152e-05
2.332722500000000000e+00,6.365214129319636061e-05
2.340220000000000000e+00,6.396779082989598707e-05
2.347717500000000000e+00,6.428353540122774129e-05
2.355215000000000000e+00,6.459937037272223354e-05
2.362712500000000000e+00,6.491529113585829821e-05
2.370210000000000000e+00,6.523129310811208112e-05
2.377707500000000000e+00,6.554737173300397186e-05
2.385205000000000000e+00,6.586352248013903105e-05
2.392702500000000000e+00,6.617974084524379892e-05
2.400200000000000000e+00,6.649602235021733420e-05
2.407697500000000000e+00,6.681236254315975570e-05
2.415195000000000000e+00,6.712875699841691147e-05
2.422692500000000000e+00,6.744520131660955735e-05
2.430190000000000000e+00,6.776169112467352669e-05
2.437687500000000000e+00,6.807822207589241906e-05
2.445185000000000000e+00,6.839478984991992122e-05
2.452682500000000000e+00,6.871139015282470668e-05
2.460180000000000000e+00,6.902801871710671224e-05
2.467677500000000000e+00,6.934467130173166990e-05
2.475175000000000000e+00,6.966134369214990415e-05
2.482672500000000000e+00,6.997803170032835661e-05
2.490170000000000000e+00,7.029473116477045406e-05
2.497667500000000000e+00,7.061143795053204618e-05
2.505165000000000000e+00,7.092814794925172256e-05
2.512662500000000000e+00,7.124485707915818530e-05
2.520160000000000000e+00,7.156156128509835691e-05
2.527657500000000000e+00,7.187825653854171715e-05
2.535155000000000000e+00,7.219493883760477889e-05
2.542652500000000000e+00,7.251160420705344623e-05
2.550150000000000000e+00,7.282824869832227267e-05
2.557647500000000000e+00,7.314486838952381233e-05
2.565145000000000000e+00,7.346145938544642446e-05
2.572642500000000000e+00,7.377801781757610652e-05
2.580140000000000000e+00,7.409453984408993484e-05
2.587637500000000000e+00,7.441102164986099763e-05
2.595135000000000000e+00,7.472745944646771922e-05
2.602632500000000000e+00,7.504384947218697532e-05
2.610130000000000000e+00,7.536018799199332052e-05
2.617627500000000000e+00,7.567647129756236292e-05
2.625125000000000000e+00,7.599269570725696759e-05
2.632622500000000000e+00,7.630885756613107844e-05
2.640120000000000000e+00,7.662495324591497305e-05
2.647617500000000000e+00,7.694097914500980099e-05
2.655115000000000000e+00,7.725693168847712127e-05
2.662612500000000000e+00,7.757280732802327632e-05
2.670110000000000000e+00,7.788860254198966119e-05
2.677607500000000000e+00,7.820431383533098539e-05
2.685105000000000000e+00,7.851993773960495935e-05
2.692602500000000000e+00,7.883547081294646334e-05
2.700100000000000000e+00,7.915090964005417110e-05
2.707597500000000000e+00,7.946625083215841682e-05
2.715095000000000000e+00,7.978149102700722247e-05
2.722592500000000000e+00,8.009662688883148138e-05
2.730090000000000000e+00,8.041165510831949298e-05
2.737587500000000000e+00,8.072657240259320532e-05
2.745085000000000000e+00,8.104137551516545676e-05
2.752582500000000000e+00,8.135606121591937615e-05
2.760080000000000000e+00,8.167062630105808945e-05
2.767577500000000000e+00,8.198506759308547506e-05
2.775075000000000000e+00,8.229938194075145234e-05
2.782572500000000000e+00,8.261356621901926576e-05
2.790070000000000000e+00,8.292761732901604533e-05
2.797567500000000000e+00,8.324153219800040245e-05
2.805065000000000000e+00,8.355530777930095568e-05
2.812562500000000000e+00,8.386894105227331504e-05
2.820060000000000000e+00,8.418242902225374585e-05
2.827557500000000000e+00,8.449576872050274965e-05
2.835055000000000000e+00,8.480895720414128593e-05
2.842552500000000000e+00,8.512199155610964026e-05
2.850050000000000000e+00,8.543486888509864517e-05
2.857547500000000000e+00,8.574758632548620016e-05
2.865045000000000000e+00,8.606014103727999869e-05
2.872542500000000000e+00,8.637253020604747518e-05
2.880040000000000000e+00,8.668475104284939763e-05
2.887537500000000000e+00,8.699680078417165773e-05
2.895035000000000000e+00,8.730867669184642227e-05
2.902532500000000000e+00,8.762037605298065711e-05
2.910030000000000000e+00,8.793189617988558630e-05
2.917527500000000000e+00,8.824323440998526670e-05
2.925025000000000000e+00,8.855438810574416326e-05
2.932522500000000000e+00,8.886535465457634714e-05
2.940020000000000000e+00,8.917613146876099569e-05
2.947517500000000000e+00,8.948671598536086038e-05
2.955015000000000000e+00,8.979710566611383315e-05
2.962512500000000000e+00,9.010729799735542583e-05
2.970010000000000000e+00,9.041729048991169171e-05
2.977507500000000000e+00,9.072708067900850490e-05
2.985005000000000000e+00,9.103666612415876262e-05
2.992502500000000000e+00,9.134604440906847977e-05
