"Freq [GHz]","dB(S(waveport1:1,antenna)) []"
0.001,-108.169296849133
0.0084975,-89.5834899745003
0.015995,-84.0896741463495
0.0234925,-80.7508478095323
0.03099,-78.3451023794491
0.0384875,-76.4632691493373
0.045985,-74.9174965521568
0.0534825,-73.6057714482387
0.06098,-72.466470013619
0.0684775,-71.4595013412649
0.075975,-70.5573138429712
0.0834725,-69.7401562293817
0.09097,-68.993385257541
0.0984675,-68.3058432982181
0.105965,-67.6688328858625
0.1134625,-67.0754427993259
0.12096,-66.5200900697475
0.1284575,-65.9982000051154
0.135955,-65.5059771291568
0.1434525,-65.0402376814277
0.15095,-64.598284838395
0.1584475,-64.1778142124532
0.165945,-63.7768412190228
0.1734425,-63.3936445069151
0.18094,-63.026721368926
0.1884375,-62.6747522113892
0.195935,-62.3365719601113
0.2034325,-62.0111468385926
0.21093,-61.6975553510508
0.2184275,-61.394972588445
0.225925,-61.1026571841758
0.2334225,-60.8199404001263
0.24092,-60.5462169387118
0.2484175,-60.2809371634019
0.255915,-60.0236004763088
0.2634125,-59.7737496522795
0.27091,-59.5309659683547
0.2784075,-59.2948649982632
0.285905,-59.0650929658739
0.2934025,-58.8413235707619
0.3009,-58.6232552143846
0.3083975,-58.4106085676927
0.315895,-58.2031244309514
0.3233925,-58.0005618446331
0.33089,-57.8026964168459
0.3383875,-57.6093188381805
0.345885,-57.4202335593252
0.3533825,-57.2352576105008
0.36088,-57.0542195448471
0.3683775,-56.8769584904643
0.375875,-56.7033232979712
0.3833725,-56.5331717722587
0.39087,-56.3663699786533
0.3983675,-56.202791615005
0.405865,-56.0423174423237
0.4133625,-55.8848347675332
0.42086,-55.73023697272
0.4283575,-55.5784230859507
0.435855,-55.4292973893293
0.4433525,-55.282769060483
0.45085,-55.138751844113
0.4583475,-54.997163750634
0.465845,-54.8579267792649
0.4733425,-54.7209666632293
0.48084,-54.5862126349784
0.4883375,-54.4535972095799
0.495835,-54.3230559846104
0.5033325,-54.194527455065
0.51083,-54.0679528419527
0.5183275,-53.9432759333804
0.525825,-53.8204429370489
0.5333225,-53.699402343192
0.54082,-53.5801047970841
0.5483175,-53.462502980325
0.555815,-53.3465515001867
0.5633125,-53.2322067863752
0.57081,-53.1194269946171
0.5783075,-53.0081719165384
0.585805,-52.898402895348
0.5933025,-52.7900827468832
0.6008,-52.6831756856137
0.6082975,-52.5776472552341
0.615795,-52.4734642635087
0.6232925,-52.370594721059
0.63079,-52.2690077838114
0.6382875,-52.1686736988454
0.645785,-52.0695637534045
0.6532825,-51.9716502268498
0.66078,-51.8749063453562
0.6682775,-51.7793062391638
0.675775,-51.6848249022148
0.6832725,-51.5914381540179
0.69077,-51.4991226035932
0.6982675,-51.4078556153642
0.705765,-51.3176152768713
0.7132625,-51.2283803681912
0.72076,-51.1401303329565
0.7282575,-51.0528452508738
0.735755,-50.9665058116505
0.7432525,-50.8810932902433
0.75075,-50.7965895233491
0.7582475,-50.7129768870644
0.765745,-50.6302382756441
0.7732425,-50.5483570812951
0.78074,-50.4673171749451
0.7882375,-50.3871028879316
0.795735,-50.3076989945562
0.8032325,-50.2290906954589
0.81073,-50.1512636017636
0.8182275,-50.0742037199548
0.825725,-49.9978974374432
0.8332225,-49.9223315087846
0.84072,-49.8474930425159
0.8482175,-49.7733694885764
0.855715,-49.6999486262815
0.8632125,-49.6272185528227
0.87071,-49.555167672264
0.8782075,-49.4837846850108
0.885705,-49.4130585777265
0.8932025,-49.342978613674
0.9007,-49.2735343234617
0.9081975,-49.2047154961727
0.915695,-49.1365121708594
0.9231925,-49.0689146283843
0.93069,-49.0019133835921
0.9381875,-48.9354991777947
0.945685,-48.8696629715569
0.9531825,-48.8043959377659
0.96068,-48.7396894549732
0.9681775,-48.6755351009954
0.975675,-48.611924646762
0.9831725,-48.5488500503984
0.99067,-48.4863034515346
0.9981675,-48.4242771658282
1.005665,-48.3627636796923
1.0131625,-48.30175564522
1.02066,-48.2412458752954
1.0281575,-48.1812273388844
1.035655,-48.1216931564962
1.0431525,-48.062636595809
1.05065,-48.0040510674523
1.0581475,-47.9459301209394
1.065645,-47.8882674407435
1.0731425,-47.8310568425121
1.08064,-47.7742922694121
1.0881375,-47.7179677886029
1.095635,-47.6620775878293
1.1031325,-47.6066159721322
1.11063,-47.5515773606694
1.1181275,-47.4969562836444
1.125625,-47.4427473793379
1.1331225,-47.3889453912373
1.14062,-47.3355451652621
1.1481175,-47.2825416470789
1.155615,-47.2299298795055
1.1631125,-47.1777049999977
1.17061,-47.1258622382179
1.1781075,-47.0743969136805
1.185605,-47.0233044334734
1.1931025,-46.9725802900502
1.2006,-46.9222200590922
1.2080975,-46.8722193974372
1.215595,-46.8225740410723
1.2230925,-46.7732798031882
1.23059,-46.724332572294
1.2380875,-46.6757283103879
1.245585,-46.627463051185
1.2530825,-46.5795328983966
1.26058,-46.5319340240623
1.2680775,-46.4846626669309
1.275575,-46.4377151308894
1.2830725,-46.3910877834379
1.29057,-46.3447770542094
1.2980675,-46.2987794335321
1.305565,-46.2530914710336
1.3130625,-46.2077097742849
1.32056,-46.162631007483
1.3280575,-46.1178518901712
1.335555,-46.0733691959953
1.3430525,-46.0291797514946
1.35055,-45.9852804349267
1.3580475,-45.9416681751252
1.365545,-45.8983399503882
1.3730425,-45.8552927873982
1.38054,-45.8125237601708
1.3880375,-45.770029989032
1.395535,-45.7278086396234
1.4030325,-45.6858569219343
1.41053,-45.6441720893587
1.4180275,-45.6027514377784
1.425525,-45.5615923046696
1.4330225,-45.5206920682337
1.44052,-45.4800481465502
1.4480175,-45.4396579967516
1.455515,-45.3995191142203
1.4630125,-45.3596290318058
1.47051,-45.3199853190614
1.4780075,-45.2805855815015
1.485505,-45.241427459877
1.4930025,-45.2025086294688
1.5005,-45.1638267993996
1.5079975,-45.1253797119625
1.515495,-45.0871651419665
1.5229925,-45.0491808960979
1.53049,-45.0114248122981
1.5379875,-44.9738947591553
1.545485,-44.9365886353128
1.5529825,-44.8995043688898
1.56048,-44.8626399169178
1.5679775,-44.8259932647894
1.575475,-44.7895624257208
1.5829725,-44.7533454402269
1.59047,-44.7173403756089
1.5979675,-44.681545325454
1.605465,-44.6459584091467
1.6129625,-44.6105777713917
1.62046,-44.5754015817474
1.6279575,-44.540428034171
1.635455,-44.5056553465734
1.6429525,-44.4710817603842
1.65045,-44.4367055401273
1.6579475,-44.4025249730058
1.665445,-44.3685383684956
1.6729425,-44.3347440579493
1.68044,-44.3011403942081
1.6879375,-44.2677257512229
1.695435,-44.2344985236831
1.7029325,-44.2014571266546
1.71043,-44.1685999952246
1.7179275,-44.1359255841551
1.725425,-44.1034323675435
1.7329225,-44.0711188384906
1.74042,-44.0389835087759
1.7479175,-44.0070249085397
1.755415,-43.9752415859721
1.7629125,-43.9436321070085
1.77041,-43.9121950550319
1.7779075,-43.8809290305812
1.785405,-43.8498326510653
1.7929025,-43.8189045504839
1.8004,-43.7881433791539
1.8078975,-43.7575478034407
1.815395,-43.7271165054966
1.8228925,-43.6968481830027
1.83039,-43.6667415489178
1.8378875,-43.6367953312312
1.845385,-43.6070082727214
1.8528825,-43.5773791307187
1.86038,-43.5479066768737
1.8678775,-43.5185896969295
1.875375,-43.4894269904991
1.8828725,-43.4604173708465
1.89037,-43.4315596646732
1.8978675,-43.4028527119077
1.905365,-43.3742953655
1.9128625,-43.3458864912199
1.92036,-43.317624967459
1.9278575,-43.2895096850365
1.935355,-43.2615395470094
1.9428525,-43.2337134684855
1.95035,-43.2060303764406
1.9578475,-43.1784892095387
1.965345,-43.1510889179561
1.9728425,-43.1238284632084
1.98034,-43.0967068179811
1.9878375,-43.0697229659631
1.995335,-43.0428759016833
2.0028325,-43.0161646303508
2.01033,-42.9895881676972
2.0178275,-42.9631455398222
2.025325,-42.9368357830428
2.0328225,-42.9106579437433
2.04032,-42.8846110782306
2.0478175,-42.8586942525898
2.055315,-42.8329065425438
2.0628125,-42.8072470333152
2.07031,-42.7817148194901
2.0778075,-42.7563090048852
2.085305,-42.7310287024166
2.0928025,-42.705873033971
2.1003,-42.6808411302797
2.1077975,-42.6559321307943
2.115295,-42.6311451835643
2.1227925,-42.6064794451182
2.13029,-42.5819340803447
2.1377875,-42.5575082623777
2.145285,-42.5332011724825
2.1527825,-42.5090119999437
2.16028,-42.4849399419557
2.1677775,-42.4609842035146
2.175275,-42.4371439973122
2.1827725,-42.4134185436315
2.19027,-42.3898070702442
2.1977675,-42.3663088123102
2.205265,-42.342923012278
2.2127625,-42.3196489197872
2.22026,-42.2964857915733
2.2277575,-42.2734328913728
2.235255,-42.2504894898308
2.2427525,-42.2276548644096
2.25025,-42.2049282992993
2.2577475,-42.1823090853296
2.265245,-42.1597965198827
2.2727425,-42.1373899068085
2.28024,-42.1150885563402
2.2877375,-42.0928917850116
2.295235,-42.0707989155766
2.3027325,-42.0488092769283
2.31023,-42.0269222040209
2.3177275,-42.0051370377921
2.325225,-41.983453125087
2.3327225,-41.9618698185829
2.34022,-41.9403864767157
2.3477175,-41.9190024636074
2.355215,-41.8977171489942
2.3627125,-41.8765299081566
2.37021,-41.8554401218499
2.3777075,-41.8344471762359
2.385205,-41.8135504628159
2.3927025,-41.792749378365
2.4002,-41.7720433248663
2.4076975,-41.7514317094475
2.415195,-41.7309139443174
2.4226925,-41.7104894467042
2.43019,-41.690157638794
2.4376875,-41.6699179476706
2.445185,-41.6497698052568
2.4526825,-41.6297126482551
2.46018,-41.6097459180909
2.4676775,-41.5898690608555
2.475175,-41.5700815272507
2.4826725,-41.5503827725334
2.49017,-41.5307722564617
2.4976675,-41.5112494432419
2.505165,-41.4918138014754
2.5126625,-41.4724648041077
2.52016,-41.4532019283767
2.5276575,-41.4340246557633
2.535155,-41.4149324719413
2.5426525,-41.3959248667293
2.55015,-41.3770013340423
2.5576475,-41.3581613718444
2.565145,-41.3394044821029
2.5726425,-41.3207301707415
2.58014,-41.3021379475958
2.5876375,-41.2836273263687
2.595135,-41.2651978245861
2.6026325,-41.2468489635541
2.61013,-41.2285802683164
2.6176275,-41.210391267612
2.625125,-41.1922814938344
2.6326225,-41.1742504829903
2.64012,-41.1562977746599
2.6476175,-41.1384229119571
2.655115,-41.1206254414906
2.6626125,-41.1029049133256
2.67011,-41.0852608809458
2.6776075,-41.0676929012164
2.685105,-41.050200534347
2.6926025,-41.0327833438558
2.7001,-41.0154408965335
2.7075975,-40.9981727624087
2.715095,-40.9809785147127
2.7225925,-40.9638577298459
2.73009,-40.946809987344
2.7375875,-40.9298348698446
2.745085,-40.9129319630552
2.7525825,-40.8961008557203
2.76008,-40.8793411395906
2.7675775,-40.8626524093908
2.775075,-40.8460342627897
2.7825725,-40.8294863003695
2.79007,-40.8130081255963
2.7975675,-40.79659934479
2.805065,-40.7802595670962
2.8125625,-40.7639884044573
2.82006,-40.7477854715842
2.8275575,-40.7316503859288
2.835055,-40.7155827676572
2.8425525,-40.699582239622
2.85005,-40.6836484273364
2.8575475,-40.6677809589482
2.865045,-40.6519794652139
2.8725425,-40.6362435794736
2.88004,-40.6205729376261
2.8875375,-40.6049671781043
2.895035,-40.5894259418514
2.9025325,-40.573948872297
2.91003,-40.5585356153334
2.9175275,-40.5431858192932
2.925025,-40.5278991349262
2.9325225,-40.5126752153774
2.94002,-40.497513716165
2.9475175,-40.4824142951584
2.955015,-40.4673766125578
2.9625125,-40.4524003308725
2.97001,-40.4374851149008
2.9775075,-40.4226306317094
2.985005,-40.407836550614
2.9925025,-40.3931025431592
3,-40.3784282830995

