"Freq [GHz]","mag(S(waveport1:1,antenna))**2 []"
0.001,3.47971547350501E-12
0.0084975,2.51248925175477E-10
0.015995,8.90012439165237E-10
0.0234925,1.91968157865319E-09
0.03099,3.3402763797528E-09
0.0384875,5.15177791886921E-09
0.045985,7.35414036746374E-09
0.0534825,9.94728799808708E-09
0.06098,1.29310987857717E-08
0.0684775,1.63053746975618E-08
0.075975,2.00697955939151E-08
0.0834725,2.42238524313458E-08
0.09097,2.87667547802688E-08
0.0984675,3.36973072064263E-08
0.105965,3.90176083754561E-08
0.1134625,4.47277386006468E-08
0.12096,5.08269458619595E-08
0.1284575,5.73150100263946E-08
0.135955,6.4191698407201E-08
0.1434525,7.14567660175758E-08
0.15095,7.91099558312013E-08
0.1584475,8.71509990484137E-08
0.165945,9.55796153667889E-08
0.1734425,1.04395513254943E-07
0.18094,1.13598390228354E-07
0.1884375,1.23187933126041E-07
0.195935,1.33163818386943E-07
0.2034325,1.43525712324915E-07
0.21093,1.54273271401252E-07
0.2184275,1.65406142493735E-07
0.225925,1.76923963161236E-07
0.2334225,1.88826361902961E-07
0.24092,2.01112958411493E-07
0.2484175,2.13783363818847E-07
0.255915,2.26837180934825E-07
0.2634125,2.4027400447702E-07
0.27091,2.54093421291896E-07
0.2784075,2.68295010566452E-07
0.285905,2.82878344030021E-07
0.2934025,2.97842986145877E-07
0.3009,3.13188494292339E-07
0.3083975,3.2891441893319E-07
0.315895,3.4502030377725E-07
0.3233925,3.61505685927044E-07
0.33089,3.78370096016554E-07
0.3383875,3.95613058338129E-07
0.345885,4.13234090958647E-07
0.3533825,4.31232705825136E-07
0.36088,4.49608408860063E-07
0.3683775,4.68360700046587E-07
0.375875,4.87489073504103E-07
0.3833725,5.06993017554436E-07
0.39087,5.26872014779121E-07
0.3983675,5.47125542068182E-07
0.405865,5.67753070660913E-07
0.4133625,5.88754066179145E-07
0.42086,6.10127988653528E-07
0.4283575,6.31874292543376E-07
0.435855,6.5399242675062E-07
0.4433525,6.76481834628442E-07
0.45085,6.99341953985164E-07
0.4583475,7.22572217083971E-07
0.465845,7.4617205063904E-07
0.4733425,7.70140875808656E-07
0.48084,7.94478108185872E-07
0.4883375,8.19183157787292E-07
0.495835,8.44255429040506E-07
0.5033325,8.69694320770716E-07
0.51083,8.95499226187093E-07
0.5183275,9.21669532869324E-07
0.525825,9.48204622754884E-07
0.5333225,9.75103872127439E-07
0.54082,1.00236665160687E-06
0.5483175,1.02999232614128E-06
0.555815,1.05798025500144E-06
0.5633125,1.086329791778E-06
0.57081,1.11504028438174E-06
0.5783075,1.14411107504738E-06
0.585805,1.17354150034095E-06
0.5933025,1.20333089117127E-06
0.6008,1.23347857280556E-06
0.6082975,1.26398386488948E-06
0.615795,1.29484608147181E-06
0.6232925,1.32606453103385E-06
0.63079,1.35763851652376E-06
0.6382875,1.38956733539585E-06
0.645785,1.42185027965503E-06
0.6532825,1.45448663590636E-06
0.66078,1.48747568540982E-06
0.6682775,1.52081670414029E-06
0.675775,1.55450896285272E-06
0.6832725,1.58855172715256E-06
0.69077,1.62294425757125E-06
0.6982675,1.65768580964692E-06
0.705765,1.69277563401E-06
0.7132625,1.72821297647384E-06
0.72076,1.76399707813017E-06
0.7282575,1.80012717544925E-06
0.735755,1.8366025003846E-06
0.7432525,1.87342228048224E-06
0.75075,1.91058573899419E-06
0.7582475,1.9480920949961E-06
0.765745,1.98594056350891E-06
0.7732425,2.02413035562428E-06
0.78074,2.06266067863362E-06
0.7882375,2.10153073616062E-06
0.795735,2.14073972829694E-06
0.8032325,2.18028685174101E-06
0.81073,2.22017129993964E-06
0.8182275,2.26039226323231E-06
0.825725,2.30094892899785E-06
0.8332225,2.34184048180342E-06
0.84072,2.38306610355547E-06
0.8482175,2.42462497365256E-06
0.855715,2.46651626913978E-06
0.8632125,2.50873916486464E-06
0.87071,2.5512928336341E-06
0.8782075,2.5941764463727E-06
0.885705,2.63738917228148E-06
0.8932025,2.68093017899751E-06
0.9007,2.72479863275394E-06
0.9081975,2.76899369854025E-06
0.915695,2.81351454026255E-06
0.9231925,2.85836032090386E-06
0.93069,2.90353020268412E-06
0.9381875,2.94902334721962E-06
0.945685,2.99483891568202E-06
0.9531825,3.04097606895653E-06
0.96068,3.08743396779913E-06
0.9681775,3.13421177299285E-06
0.975675,3.18130864550274E-06
0.9831725,3.22872374662964E-06
0.99067,3.27645623816238E-06
0.9981675,3.32450528252847E-06
1.005665,3.3728700429431E-06
1.0131625,3.42154968355631E-06
1.02066,3.47054336959823E-06
1.0281575,3.51985026752244E-06
1.035655,3.56946954514705E-06
1.0431525,3.61940037179376E-06
1.05065,3.66964191842459E-06
1.0581475,3.72019335777624E-06
1.065645,3.77105386449213E-06
1.0731425,3.82222261525188E-06
1.08064,3.87369878889834E-06
1.0881375,3.92548156656205E-06
1.095635,3.97757013178296E-06
1.1031325,4.02996367062966E-06
1.11063,4.08266137181574E-06
1.1181275,4.13566242681359E-06
1.125625,4.18896602996529E-06
1.1331225,4.24257137859082E-06
1.14062,4.29647767309348E-06
1.1481175,4.35068411706244E-06
1.155615,4.40518991737253E-06
1.1631125,4.45999428428125E-06
1.17061,4.5150964315229E-06
1.1781075,4.57049557639995E-06
1.185605,4.62619093987158E-06
1.1931025,4.68218174663956E-06
1.2006,4.73846722523117E-06
1.2080975,4.79504660807954E-06
1.215595,4.85191913160124E-06
1.2230925,4.90908403627116E-06
1.23059,4.96654056669468E-06
1.2380875,5.02428797167737E-06
1.245585,5.08232550429195E-06
1.2530825,5.14065242194279E-06
1.26058,5.1992679864279E-06
1.2680775,5.25817146399843E-06
1.275575,5.31736212541576E-06
1.2830725,5.37683924600632E-06
1.29057,5.43660210571396E-06
1.2980675,5.49664998915015E-06
1.305565,5.55698218564201E-06
1.3130625,5.61759798927811E-06
1.32056,5.67849669895229E-06
1.3280575,5.73967761840534E-06
1.335555,5.80114005626486E-06
1.3430525,5.86288332608312E-06
1.35055,5.92490674637315E-06
1.3580475,5.987209640643E-06
1.365545,6.04979133742844E-06
1.3730425,6.11265117032387E-06
1.38054,6.17578847801179E-06
1.3880375,6.23920260429072E-06
1.395535,6.30289289810176E-06
1.4030325,6.36685871355375E-06
1.41053,6.43109940994721E-06
1.4180275,6.49561435179701E-06
1.425525,6.560402908854E-06
1.4330225,6.6254644561255E-06
1.44052,6.69079837389488E-06
1.4480175,6.7564040477402E-06
1.455515,6.822280868552E-06
1.4630125,6.88842823255034E-06
1.47051,6.95484554130121E-06
1.4780075,7.02153220173219E-06
1.485505,7.08848762614774E-06
1.4930025,7.15571123224387E-06
1.5005,7.22320244312248E-06
1.5079975,7.29096068730543E-06
1.515495,7.35898539874817E-06
1.5229925,7.42727601685347E-06
1.53049,7.49583198648474E-06
1.5379875,7.56465275797951E-06
1.545485,7.63373778716288E-06
1.5529825,7.703086535361E-06
1.56048,7.77269846941481E-06
1.5679775,7.84257306169392E-06
1.575475,7.91270979011085E-06
1.5829725,7.98310813813557E-06
1.59047,8.0537675948105E-06
1.5979675,8.12468765476598E-06
1.605465,8.19586781823627E-06
1.6129625,8.26730759107617E-06
1.62046,8.33900648477827E-06
1.6279575,8.41096401649102E-06
1.635455,8.48317970903744E-06
1.6429525,8.55565309093471E-06
1.65045,8.62838369641475E-06
1.6579475,8.70137106544558E-06
1.665445,8.77461474375375E-06
1.6729425,8.84811428284783E-06
1.68044,8.92186924004296E-06
1.6879375,8.99587917848648E-06
1.695435,9.07014366718489E-06
1.7029325,9.14466228103184E-06
1.71043,9.21943460083758E-06
1.7179275,9.29446021335954E-06
1.725425,9.36973871133441E-06
1.7329225,9.44526969351148E-06
1.74042,9.52105276468748E-06
1.7479175,9.59708753574283E-06
1.755415,9.6733736236794E-06
1.7629125,9.74991065165978E-06
1.77041,9.82669824904806E-06
1.7779075,9.90373605145221E-06
1.785405,9.98102370076809E-06
1.7929025,1.0058560845225E-05
1.8004,1.0136347139433E-05
1.8078975,1.02143822444316E-05
1.815395,1.02926658277407E-05
1.8228925,1.03711975634122E-05
1.83039,1.04499771320848E-05
1.8378875,1.05290042210391E-05
1.845385,1.06082785242552E-05
1.8528825,1.06877997424718E-05
1.86038,1.0767567583247E-05
1.8678775,1.08475817610214E-05
1.875375,1.09278419971819E-05
1.8828725,1.1008348020128E-05
1.89037,1.108909956534E-05
1.8978675,1.11700963754481E-05
1.905365,1.12513382003043E-05
1.9128625,1.13328247970549E-05
1.92036,1.14145559302158E-05
1.9278575,1.14965313717488E-05
1.935355,1.15787509011395E-05
1.9428525,1.16612143054779E-05
1.95035,1.17439213795389E-05
1.9578475,1.18268719258665E-05
1.965345,1.19100657548577E-05
1.9728425,1.19935026848494E-05
1.98034,1.20771825422059E-05
1.9878375,1.21611051614087E-05
1.995335,1.22452703851471E-05
2.0028325,1.2329678064411E-05
2.01033,1.24143280585841E-05
2.0178275,1.24992202355398E-05
2.025325,1.25843544717373E-05
2.0328225,1.26697306523198E-05
2.04032,1.27553486712132E-05
2.0478175,1.2841208431227E-05
2.055315,1.29273098441556E-05
2.0628125,1.30136528308809E-05
2.07031,1.31002373214761E-05
2.0778075,1.31870632553107E-05
2.085305,1.32741305811557E-05
2.0928025,1.33614392572909E-05
2.1003,1.34489892516118E-05
2.1077975,1.35367805417381E-05
2.115295,1.36248131151229E-05
2.1227925,1.37130869691619E-05
2.13029,1.38016021113039E-05
2.1377875,1.38903585591617E-05
2.145285,1.39793563406228E-05
2.1527825,1.40685954939613E-05
2.16028,1.41580760679498E-05
2.1677775,1.42477981219714E-05
2.175275,1.43377617261317E-05
2.1827725,1.44279669613713E-05
2.19027,1.45184139195782E-05
2.1977675,1.46091027036994E-05
2.205265,1.47000334278534E-05
2.2127625,1.47912062174415E-05
2.22026,1.48826212092593E-05
2.2277575,1.49742785516073E-05
2.235255,1.50661784044014E-05
2.2427525,1.51583209392822E-05
2.25025,1.52507063397241E-05
2.2577475,1.53433348011431E-05
2.265245,1.54362065310039E-05
2.2727425,1.5529321748926E-05
2.28024,1.56226806867883E-05
2.2877375,1.57162835888328E-05
2.295235,1.58101307117668E-05
2.3027325,1.59042223248635E-05
2.31023,1.59985587100612E-05
2.3177275,1.60931401620606E-05
2.325225,1.61879669884204E-05
2.3327225,1.62830395096514E-05
2.34022,1.63783580593074E-05
2.3477175,1.64739229840752E-05
2.355215,1.65697346438614E-05
2.3627125,1.66657934118778E-05
2.37021,1.67620996747228E-05
2.3777075,1.68586538324617E-05
2.385205,1.69554562987031E-05
2.3927025,1.70525075006732E-05
2.4002,1.71498078792864E-05
2.4076975,1.72473578892132E-05
2.415195,1.73451579989447E-05
2.4226925,1.74432086908538E-05
2.43019,1.75415104612525E-05
2.4376875,1.76400638204456E-05
2.445185,1.77388692927814E-05
2.4526825,1.78379274166971E-05
2.46018,1.79372387447613E-05
2.4676775,1.80368038437114E-05
2.475175,1.81366232944874E-05
2.4826725,1.82366976922607E-05
2.49017,1.83370276464582E-05
2.4976675,1.84376137807825E-05
2.505165,1.85384567332254E-05
2.5126625,1.86395571560787E-05
2.52016,1.87409157159374E-05
2.5276575,1.88425330936996E-05
2.535155,1.89444099845592E-05
2.5426525,1.90465470979945E-05
2.55015,1.91489451577493E-05
2.5576475,1.925160490181E-05
2.565145,1.93545270823747E-05
2.5726425,1.94577124658176E-05
2.58014,1.95611618326459E-05
2.5876375,1.96648759774506E-05
2.595135,1.9768855708851E-05
2.6026325,1.98731018494315E-05
2.61013,1.99776152356719E-05
2.6176275,2.00823967178705E-05
2.625125,2.01874471600599E-05
2.6326225,2.02927674399148E-05
2.64012,2.03983584486532E-05
2.6476175,2.05042210909287E-05
2.655115,2.06103562847156E-05
2.6626125,2.07167649611854E-05
2.67011,2.08234480645752E-05
2.6776075,2.0930406552048E-05
2.685105,2.10376413935437E-05
2.6926025,2.11451535716218E-05
2.7001,2.12529440812953E-05
2.7075975,2.13610139298549E-05
2.715095,2.14693641366846E-05
2.7225925,2.15779957330673E-05
2.73009,2.16869097619816E-05
2.7375875,2.17961072778875E-05
2.745085,2.19055893465039E-05
2.7525825,2.20153570445744E-05
2.76008,2.21254114596241E-05
2.7675775,2.22357536897048E-05
2.775075,2.23463848431307E-05
2.7825725,2.24573060382027E-05
2.79007,2.25685184029216E-05
2.7975675,2.26800230746908E-05
2.805065,2.27918212000072E-05
2.8125625,2.29039139341408E-05
2.82006,2.30163024408028E-05
2.8275575,2.31289878918015E-05
2.835055,2.32419714666866E-05
2.8425525,2.33552543523815E-05
2.85005,2.34688377428024E-05
2.8575475,2.35827228384657E-05
2.865045,2.3696910846083E-05
2.8725425,2.38114029781416E-05
2.88004,2.39262004524742E-05
2.8875375,2.40413044918135E-05
2.895035,2.41567163233344E-05
2.9025325,2.42724371781826E-05
2.91003,2.43884682909888E-05
2.9175275,2.45048108993695E-05
2.925025,2.46214662434139E-05
2.9325225,2.47384355651559E-05
2.94002,2.48557201080318E-05
2.9475175,2.49733211163239E-05
2.955015,2.50912398345883E-05
2.9625125,2.52094775070687E-05
2.97001,2.53280353770943E-05
2.9775075,2.54469146864626E-05
2.985005,2.55661166748067E-05
2.9925025,2.56856425789465E-05
3,2.58054936322248E-05
