"Freq [GHz]","dB(S(waveport1:1,antenna)) []"
0.001,-107.854902418169
0.0084975,-89.2691001263476
0.015995,-83.7752933076569
0.0234925,-80.4364815149933
0.03099,-78.0307561545846
0.0384875,-76.1489485159136
0.045985,-74.6032070289917
0.0534825,-73.2915185510437
0.06098,-72.1522592546284
0.0684775,-71.1453382288138
0.075975,-70.2432038810677
0.0834725,-69.4261049172904
0.09097,-68.679398089386
0.0984675,-67.9919257626093
0.105965,-67.3549904804879
0.1134625,-66.761681010704
0.12096,-66.2064143753453
0.1284575,-65.6846158761407
0.135955,-65.1924900301611
0.1434525,-64.7268530699105
0.15095,-64.2850081644082
0.1584475,-63.8646509182069
0.165945,-63.4637967384912
0.1734425,-63.0807242654438
0.18094,-62.7139307828401
0.1884375,-62.3620966876021
0.195935,-62.0240568957345
0.2034325,-61.6987776205465
0.21093,-61.3853373556771
0.2184275,-61.082911181119
0.225925,-60.7907577189212
0.2334225,-60.50820821923
0.24092,-60.2346573723404
0.2484175,-59.9695555292197
0.255915,-59.7124020790963
0.2634125,-59.4627397835541
0.27091,-59.2201499059921
0.2784075,-58.9842480061204
0.285905,-58.7546802934137
0.2934025,-58.5311204526787
0.3009,-58.3132668702316
0.3083975,-58.1008402015112
0.315895,-57.8935812309009
0.3233925,-57.6912489826234
0.33089,-57.4936190481709
0.3383875,-57.3004821011535
0.345885,-57.1116425749158
0.3533825,-56.926917481974
0.36088,-56.7461353574036
0.3683775,-56.5691353108829
0.375875,-56.395766174253
0.3833725,-56.2258857332735
0.39087,-56.0593600337871
0.3983675,-55.8960627538102
0.405865,-55.7358746341708
0.4133625,-55.5786829612649
0.42086,-55.424381096307
0.4283575,-55.2728680461497
0.435855,-55.1240480713429
0.4433525,-54.9778303276223
0.45085,-54.8341285374617
0.4583475,-54.6928606887147
0.465845,-54.5539487577084
0.4733425,-54.4173184544449
0.48084,-54.2828989878278
0.4883375,-54.1506228490525
0.495835,-54.0204256115009
0.5033325,-53.892245745654
0.51083,-53.7660244476893
0.5183275,-53.641705480567
0.525825,-53.5192350265285
0.5333225,-53.3985615500387
0.54082,-53.279635670295
0.5483175,-53.162410042515
0.555815,-53.0468392472863
0.5633125,-52.9328796873302
0.57081,-52.8204894910912
0.5783075,-52.7096284226185
0.585805,-52.6002577972517
0.5933025,-52.4923404026696
0.6008,-52.385840424896
0.6082975,-52.2807233788958
0.615795,-52.1769560434219
0.6232925,-52.0745063998056
0.63079,-51.973343574407
0.6382875,-51.8734377844663
0.645785,-51.774760287117
0.6532825,-51.6772833313427
0.66078,-51.5809801126757
0.6682775,-51.4858247304517
0.675775,-51.3917921474493
0.6832725,-51.2988581517574
0.69077,-51.2069993207229
0.6982675,-51.1161929868455
0.705765,-51.0264172054945
0.7132625,-50.9376507243308
0.72076,-50.8498729543295
0.7282575,-50.7630639423011
0.735755,-50.6772043448211
0.7432525,-50.5922754034819
0.75075,-50.5082589213861
0.7582475,-50.4251372408095
0.765745,-50.3428932219623
0.7732425,-50.2615102227863
0.78074,-50.1809720797269
0.7882375,-50.1012630894242
0.795735,-50.0223679912716
0.8032325,-49.9442719507921
0.81073,-49.8669605437879
0.8182275,-49.790419741219
0.825725,-49.7146358947731
0.8332225,-49.639595723087
0.84072,-49.5652862985859
0.8482175,-49.4916950349075
0.855715,-49.4188096748794
0.8632125,-49.3466182790219
0.87071,-49.2751092145473
0.8782075,-49.2042711448327
0.885705,-49.1340930193389
0.8932025,-49.0645640639557
0.9007,-48.9956737717508
0.9081975,-48.9274118941022
0.915695,-48.8597684321958
0.9231925,-48.79273362887
0.93069,-48.7262979607899
0.9381875,-48.6604521309368
0.945685,-48.5951870613957
0.9531825,-48.5304938864291
0.96068,-48.4663639458216
0.9681775,-48.4027887784838
0.975675,-48.3397601163033
0.9831725,-48.2772698782313
0.99067,-48.215310164594
0.9981675,-48.1538732516187
1.005665,-48.0929515861655
1.0131625,-48.0325377806542
1.02066,-47.9726246081791
1.0281575,-47.9132049978025
1.035655,-47.8542720300198
1.0431525,-47.7958189323878
1.05065,-47.7378390753106
1.0581475,-47.6803259679753
1.065645,-47.6232732544307
1.0731425,-47.5666747098053
1.08064,-47.5105242366556
1.0881375,-47.4548158614417
1.095635,-47.3995437311242
1.1031325,-47.3447021098772
1.11063,-47.2902853759128
1.1181275,-47.2362880184125
1.125625,-47.1827046345621
1.1331225,-47.1295299266842
1.14062,-47.0767586994667
1.1481175,-47.0243858572808
1.155615,-46.9724064015881
1.1631125,-46.9208154284305
1.17061,-46.8696081260016
1.1781075,-46.8187797722959
1.185605,-46.7683257328322
1.1931025,-46.7182414584495
1.2006,-46.6685224831718
1.2080975,-46.61916442214
1.215595,-46.5701629696074
1.2230925,-46.521513896997
1.23059,-46.4732130510194
1.2380875,-46.4252563518465
1.245585,-46.3776397913417
1.2530825,-46.3303594313426
1.26058,-46.2834114019958
1.2680775,-46.2367919001408
1.275575,-46.1904971877413
1.2830725,-46.1445235903639
1.29057,-46.0988674956996
1.2980675,-46.05352535213
1.305565,-46.0084936673334
1.3130625,-45.963769006932
1.32056,-45.9193479931774
1.3280575,-45.8752273036731
1.335555,-45.8314036701341
1.3430525,-45.78787387718
1.35055,-45.7446347611629
1.3580475,-45.7016832090277
1.365545,-45.659016157203
1.3730425,-45.616630590524
1.38054,-45.5745235411834
1.3880375,-45.5326920877121
1.395535,-45.4911333539859
1.4030325,-45.449844508261
1.41053,-45.4088227622331
1.4180275,-45.3680653701233
1.425525,-45.3275696277874
1.4330225,-45.2873328718485
1.44052,-45.2473524788529
1.4480175,-45.2076258644474
1.455515,-45.1681504825788
1.4630125,-45.1289238247127
1.47051,-45.089943419074
1.4780075,-45.0512068299053
1.485505,-45.0127116567452
1.4930025,-44.9744555337242
1.5005,-44.9364361288785
1.5079975,-44.8986511434816
1.515495,-44.8610983113911
1.5229925,-44.8237753984131
1.53049,-44.786680201682
1.5379875,-44.7498105490543
1.545485,-44.7131642985193
1.5529825,-44.6767393376222
1.56048,-44.640533582902
1.5679775,-44.6045449793433
1.575475,-44.5687714998404
1.5829725,-44.5332111446746
1.59047,-44.497861941004
1.5979675,-44.4627219423649
1.605465,-44.4277892281856
1.6129625,-44.3930619033111
1.62046,-44.3585380975385
1.6279575,-44.3242159651642
1.635455,-44.2900936845406
1.6429525,-44.2561694576435
1.65045,-44.222441509649
1.6579475,-44.1889080885203
1.665445,-44.1555674646038
1.6729425,-44.1224179302345
1.68044,-44.0894577993494
1.6879375,-44.0566854071107
1.695435,-44.0240991095366
1.7029325,-43.9916972831407
1.71043,-43.9594783245785
1.7179275,-43.9274406503032
1.725425,-43.8955826962272
1.7329225,-43.8639029173924
1.74042,-43.8323997876468
1.7479175,-43.8010717993284
1.755415,-43.7699174629559
1.7629125,-43.7389353069256
1.77041,-43.7081238772154
1.7779075,-43.6774817370942
1.785405,-43.6470074668386
1.7929025,-43.6166996634543
1.8004,-43.5865569404039
1.8078975,-43.5565779273405
1.815395,-43.5267612698468
1.8228925,-43.4971056291789
1.83039,-43.4676096820161
1.8378875,-43.4382721202159
1.845385,-43.4090916505731
1.8528825,-43.3800669945846
1.86038,-43.3511968882186
1.8678775,-43.3224800816885
1.875375,-43.2939153392315
1.8828725,-43.2655014388911
1.89037,-43.2372371723043
1.8978675,-43.2091213444933
1.905365,-43.1811527736602
1.9128625,-43.1533302909872
1.92036,-43.1256527404394
1.9278575,-43.0981189785723
1.935355,-43.0707278743422
1.9428525,-43.0434783089214
1.95035,-43.0163691755156
1.9578475,-42.9893993791858
1.965345,-42.9625678366732
1.9728425,-42.9358734762274
1.98034,-42.9093152374377
1.9878375,-42.8828920710681
1.995335,-42.8566029388948
2.0028325,-42.8304468135468
2.01033,-42.80442267835
2.0178275,-42.7785295271734
2.025325,-42.7527663642789
2.0328225,-42.727132204173
2.04032,-42.701626071462
2.0478175,-42.6762470007094
2.055315,-42.6509940362961
2.0628125,-42.6258662322827
2.07031,-42.6008626522747
2.0778075,-42.5759823692904
2.085305,-42.5512244656299
2.0928025,-42.526588032748
2.1003,-42.5020721711283
2.1077975,-42.4776759901597
2.115295,-42.4533986080155
2.1227925,-42.4292391515341
2.13029,-42.4051967561019
2.1377875,-42.3812705655385
2.145285,-42.3574597319836
2.1527825,-42.3337634157859
2.16028,-42.310180785394
2.1677775,-42.2867110172491
2.175275,-42.2633532956797
2.1827725,-42.2401068127973
2.19027,-42.2169707683952
2.1977675,-42.1939443698482
2.205265,-42.1710268320134
2.2127625,-42.1482173771342
2.22026,-42.1255152347445
2.2277575,-42.1029196415749
2.235255,-42.0804298414613
2.2427525,-42.0580450852533
2.25025,-42.035764630726
2.2577475,-42.0135877424914
2.265245,-41.9915136919132
2.2727425,-41.969541757021
2.28024,-41.9476712224275
2.2877375,-41.9259013792463
2.295235,-41.9042315250105
2.3027325,-41.8826609635943
2.31023,-41.8611890051338
2.3177275,-41.8398149659507
2.325225,-41.8185381684759
2.3327225,-41.7973579411758
2.34022,-41.7762736184784
2.3477175,-41.755284540701
2.355215,-41.7343900539797
2.3627125,-41.7135895101988
2.37021,-41.6928822669224
2.3777075,-41.6722676873266
2.385205,-41.6517451401326
2.3927025,-41.631313999541
2.4002,-41.6109736451675
2.4076975,-41.5907234619787
2.415195,-41.5705628402298
2.4226925,-41.550491175403
2.43019,-41.5305078681461
2.4376875,-41.5106123242135
2.445185,-41.4908039544066
2.4526825,-41.4710821745162
2.46018,-41.4514464052651
2.4676775,-41.431896072252
2.475175,-41.4124306058959
2.4826725,-41.3930494413819
2.49017,-41.373752018607
2.4976675,-41.3545377821274
2.505165,-41.3354061811063
2.5126625,-41.3163566692627
2.52016,-41.2973887048206
2.5276575,-41.2785017504592
2.535155,-41.2596952732639
2.5426525,-41.2409687446782
2.55015,-41.2223216404555
2.5576475,-41.2037534406127
2.565145,-41.1852636293838
2.5726425,-41.1668516951745
2.58014,-41.1485171305171
2.5876375,-41.1302594320268
2.595135,-41.1120781003576
2.6026325,-41.0939726401601
2.61013,-41.0759425600387
2.6176275,-41.0579873725102
2.625125,-41.0401065939632
2.6326225,-41.0222997446172
2.64012,-41.004566348483
2.6476175,-40.986905933324
2.655115,-40.9693180306167
2.6626125,-40.9518021755137
2.67011,-40.9343579068056
2.6776075,-40.9169847668843
2.685105,-40.8996823017068
2.6926025,-40.8824500607591
2.7001,-40.8652875970216
2.7075975,-40.8481944669336
2.715095,-40.8311702303596
2.7225925,-40.8142144505557
2.73009,-40.7973266941359
2.7375875,-40.7805065310401
2.745085,-40.7637535345014
2.7525825,-40.7470672810148
2.76008,-40.7304473503057
2.7675775,-40.7138933252995
2.775075,-40.6974047920909
2.7825725,-40.6809813399148
2.79007,-40.664622561116
2.7975675,-40.6483280511214
2.805065,-40.6320974084107
2.8125625,-40.615930234489
2.82006,-40.5998261338589
2.8275575,-40.5837847139935
2.835055,-40.5678055853098
2.8425525,-40.5518883611422
2.85005,-40.5360326577169
2.8575475,-40.5202380941262
2.865045,-40.5045042923039
2.8725425,-40.488830877
2.88004,-40.4732174757572
2.8875375,-40.4576637188863
2.895035,-40.4421692394436
2.9025325,-40.4267336732069
2.91003,-40.4113566586536
2.9175275,-40.3960378369381
2.925025,-40.3807768518697
2.9325225,-40.3655733498911
2.94002,-40.3504269800575
2.9475175,-40.3353373940153
2.955015,-40.3203042459819
2.9625125,-40.3053271927256
2.97001,-40.2904058935456
2.9775075,-40.2755400102528
2.985005,-40.2607292071504
2.9925025,-40.2459731510155
3,-40.2312715110806

